# An Atlas of Galaxy Spectral Energy Distributions from the Ultraviolet to the Mid-Infrared
# Brown et al. (2014)
# http://dx.doi.org/10.5072/03/529D3551F0117
# 
# Column 1 : Restframe Wavelength (Angstrom)
# Column 2 : Flux per unit wavelength (ergs/s/cm^2/Angstrom)
# Column 3 : Observed wavelength (Angstrom)
# Column 4 : Source (0 = model, 1 = Optical Spectrum, 2 = Akari, 3 = Spitzer IRS)
# 
   100.01 7.7676e-33    101.86 0 
   102.10 1.4034e-32    103.99 0 
   104.00 2.2966e-32    105.93 0 
   105.94 3.8637e-32    107.89 0 
   107.91 6.4700e-32    109.90 0 
   109.91 1.3546e-31    111.94 0 
   114.04 3.3854e-31    116.14 0 
   118.04 7.7165e-31    120.23 0 
   121.07 3.1936e-30    123.31 0 
   125.04 6.9516e-30    127.35 0 
   127.07 1.0069e-29    129.42 0 
   127.95 1.2132e-29    130.32 0 
   130.93 2.0455e-29    133.35 0 
   132.14 2.5927e-29    134.59 0 
   133.98 3.6113e-29    136.46 0 
   137.10 6.2447e-29    139.64 0 
   139.97 1.0009e-28    142.56 0 
   142.90 2.1839e-28    145.55 0 
   146.91 4.8982e-28    149.62 0 
   151.02 8.5475e-28    153.82 0 
   154.90 1.4711e-27    157.76 0 
   158.87 2.4744e-27    161.81 0 
   161.83 3.6002e-27    164.82 0 
   165.98 5.8361e-27    169.04 0 
   169.84 9.2670e-27    172.98 0 
   173.00 1.2965e-26    176.20 0 
   177.03 1.9934e-26    180.30 0 
   179.91 2.7255e-26    183.23 0 
   181.99 3.3447e-26    185.35 0 
   185.80 4.9793e-26    189.23 0 
   191.01 7.9785e-26    194.54 0 
   194.11 1.0538e-25    197.70 0 
   198.17 1.5051e-25    201.84 0 
   201.86 2.1154e-25    205.59 0 
   205.14 2.7179e-25    208.93 0 
   209.92 3.9629e-25    213.80 0 
   215.80 6.4525e-25    219.79 0 
   219.81 8.6803e-25    223.87 0 
   222.87 1.0725e-24    226.99 0 
   227.01 1.4262e-24    231.21 0 
   230.17 2.5237e-24    234.42 0 
   233.91 4.9757e-24    238.23 0 
   239.91 8.4248e-24    244.34 0 
   246.06 1.1201e-23    250.61 0 
   251.79 1.5667e-23    256.45 0 
   257.07 1.6739e-23    261.82 0 
   260.04 2.2263e-23    264.85 0 
   264.27 2.7758e-23    269.15 0 
   269.18 3.4606e-23    274.16 0 
   274.19 4.2747e-23    279.25 0 
   279.28 5.2198e-23    284.45 0 
   283.82 6.3744e-23    289.07 0 
   289.77 7.6939e-23    295.12 0 
   295.83 9.7916e-23    301.30 0 
   301.33 1.1235e-22    306.90 0 
   308.35 1.4529e-22    314.05 0 
   317.72 2.0549e-22    323.59 0 
   328.13 2.7751e-22    334.19 0 
   338.10 3.6711e-22    344.35 0 
   348.37 4.7786e-22    354.81 0 
   357.31 6.0099e-22    363.92 0 
   365.63 7.5242e-22    372.39 0 
   375.01 9.2257e-22    381.94 0 
   384.63 1.1182e-21    391.74 0 
   395.41 1.4093e-21    402.72 0 
   404.62 1.7280e-21    412.10 0 
   414.04 2.0422e-21    421.70 0 
   421.74 2.3481e-21    429.54 0 
   429.58 2.6874e-21    437.52 0 
   440.60 3.2568e-21    448.75 0 
   450.86 3.8220e-21    459.20 0 
   460.31 4.3835e-21    468.81 0 
   469.94 5.0974e-21    478.63 0 
   479.78 5.9274e-21    488.65 0 
   489.83 6.7979e-21    498.88 0 
   500.09 7.9044e-21    509.33 0 
   505.88 1.1287e-20    515.23 0 
   511.74 2.5840e-20    521.19 0 
   520.05 2.8502e-20    529.66 0 
   529.72 3.2315e-20    539.51 0 
   539.57 3.4508e-20    549.54 0 
   549.60 4.6497e-20    559.76 0 
   559.82 5.9555e-20    570.16 0 
   570.22 7.1680e-20    580.76 0 
   579.49 7.6373e-20    590.20 0 
   590.26 9.5369e-20    601.17 0 
   599.85 1.0446e-19    610.94 0 
   609.60 1.2866e-19    620.87 0 
   619.51 1.5957e-19    630.96 0 
   629.57 1.8258e-19    641.21 0 
   639.80 2.0368e-19    651.63 0 
   650.20 2.3957e-19    662.22 0 
   657.73 2.6366e-19    669.88 0 
   665.34 2.9626e-19    677.64 0 
   674.60 3.3129e-19    687.07 0 
   685.56 3.5048e-19    698.23 0 
   695.10 4.4790e-19    707.95 0 
   704.77 4.5888e-19    717.79 0 
   716.22 5.8630e-19    729.46 0 
   726.18 6.4807e-19    739.61 0 
   734.59 7.1318e-19    748.17 0 
   744.81 8.2165e-19    758.58 0 
   755.17 9.1657e-19    769.13 0 
   765.68 1.0177e-18    779.83 0 
   774.54 1.1540e-18    788.86 0 
   785.32 1.3081e-18    799.83 0 
   794.41 1.4361e-18    809.10 0 
   805.46 1.5727e-18    820.35 0 
   814.79 1.7146e-18    829.85 0 
   824.23 1.9439e-18    839.46 0 
   835.69 1.8455e-18    851.14 0 
   845.37 2.2783e-18    860.99 0 
   855.16 2.4838e-18    870.96 0 
   865.06 2.7645e-18    881.05 0 
   875.08 3.0557e-18    891.25 0 
   885.21 3.4009e-18    901.57 0 
   895.46 3.7245e-18    912.01 0 
   905.83 3.9677e-18    922.57 0 
   914.21 6.0690e-18    931.11 0 
   924.80 3.7721e-17    941.89 0 
   935.51 8.3374e-17    952.80 0 
   944.16 1.7084e-16    961.61 0 
   955.09 2.4324e-16    972.75 0 
   963.93 3.1159e-16    981.75 0 
   975.09 8.2796e-17    993.12 0 
   984.12 3.6859e-16   1002.31 0 
   995.51 3.7841e-16   1013.91 0 
  1004.72 4.7368e-16   1023.29 0 
  1014.02 4.3253e-16   1032.76 0 
  1025.76 1.7759e-16   1044.72 0 
  1035.25 3.6976e-16   1054.39 0 
  1044.83 6.3889e-16   1064.14 0 
  1054.50 6.6824e-16   1073.99 0 
  1064.26 6.0454e-16   1083.93 0 
  1074.10 7.0294e-16   1093.96 0 
  1084.04 6.3592e-16   1104.08 0 
  1094.07 7.6716e-16   1114.29 0 
  1104.20 7.6447e-16   1124.61 0 
  1114.41 7.8313e-16   1135.01 0 
  1124.72 7.5041e-16   1145.51 0 
  1135.13 8.7249e-16   1156.11 0 
  1145.63 8.3409e-16   1166.81 0 
  1156.24 8.8851e-16   1177.61 0 
  1164.25 9.3810e-16   1185.77 0 
  1175.02 7.6681e-16   1196.74 0 
  1185.89 9.4215e-16   1207.81 0 
  1194.12 7.5456e-16   1216.19 0 
  1205.16 6.0272e-16   1227.44 0 
  1216.32 3.0237e-16   1238.80 0 
  1224.75 6.8564e-16   1247.38 0 
  1236.08 9.9426e-16   1258.93 0 
  1244.65 1.1222e-15   1267.65 0 
  1256.16 1.1441e-15   1279.38 0 
  1264.87 1.0641e-15   1288.25 0 
  1273.64 1.2780e-15   1297.18 0 
  1285.42 1.3456e-15   1309.18 0 
  1294.33 1.2287e-15   1318.26 0 
  1306.31 1.2411e-15   1330.45 0 
  1315.37 1.4333e-15   1339.68 0 
  1324.48 1.4251e-15   1348.96 0 
  1333.66 1.3721e-15   1358.31 0 
  1346.00 1.5231e-15   1370.88 0 
  1355.33 1.5249e-15   1380.38 0 
  1364.73 1.4680e-15   1389.95 0 
  1374.19 1.5319e-15   1399.59 0 
  1383.71 1.5839e-15   1409.29 0 
  1396.52 1.4793e-15   1422.33 0 
  1406.20 1.5507e-15   1432.19 0 
  1415.94 1.6107e-15   1442.12 0 
  1425.76 1.6425e-15   1452.11 0 
  1435.64 1.6671e-15   1462.18 0 
  1442.27 1.7443e-15   1468.93 0 
  1445.59 1.7678e-15   1472.31 0 
  1455.61 1.7697e-15   1482.52 0 
  1465.70 1.7233e-15   1492.79 0 
  1475.86 1.7411e-15   1503.14 0 
  1486.09 1.7713e-15   1513.56 0 
  1496.40 1.8144e-15   1524.05 0 
  1503.30 1.7962e-15   1531.09 0 
  1513.72 1.7014e-15   1541.70 0 
  1517.21 1.7808e-15   1545.25 0 
  1524.21 1.7711e-15   1552.39 0 
  1534.78 1.6622e-15   1563.15 0 
  1545.42 1.7787e-15   1573.98 0 
  1556.13 1.7240e-15   1584.89 0 
  1563.31 1.7625e-15   1592.21 0 
  1574.15 1.8774e-15   1603.25 0 
  1585.06 1.9452e-15   1614.36 0 
  1596.05 2.0155e-15   1625.55 0 
  1603.42 1.9769e-15   1633.05 0 
  1614.53 2.0016e-15   1644.37 0 
  1625.72 1.9623e-15   1655.77 0 
  1633.23 2.0624e-15   1663.41 0 
  1644.55 2.1026e-15   1674.94 0 
  1655.95 2.0097e-15   1686.55 0 
  1663.59 2.1813e-15   1694.34 0 
  1671.27 2.0479e-15   1702.16 0 
  1675.12 2.2085e-15   1706.08 0 
  1686.73 2.2775e-15   1717.91 0 
  1694.52 2.2133e-15   1725.84 0 
  1706.26 2.1847e-15   1737.80 0 
  1714.14 2.1626e-15   1745.82 0 
  1726.02 2.1743e-15   1757.92 0 
  1733.99 2.2850e-15   1766.04 0 
  1746.01 2.2659e-15   1778.28 0 
  1754.07 2.3812e-15   1786.49 0 
  1766.23 2.2497e-15   1798.87 0 
  1774.38 2.3533e-15   1807.17 0 
  1786.68 2.3933e-15   1819.70 0 
  1794.92 2.4978e-15   1828.10 0 
  1803.21 2.5124e-15   1836.54 0 
  1815.71 2.4401e-15   1849.27 0 
  1824.09 2.4771e-15   1857.80 0 
  1836.73 2.4505e-15   1870.68 0 
  1845.21 2.3269e-15   1879.32 0 
  1853.73 2.3676e-15   1887.99 0 
  1866.58 2.4356e-15   1901.08 0 
  1875.19 2.5535e-15   1909.85 0 
  1883.85 2.4527e-15   1918.67 0 
  1896.91 2.4040e-15   1931.97 0 
  1905.66 2.5144e-15   1940.89 0 
  1914.46 2.4886e-15   1949.84 0 
  1923.30 2.4801e-15   1958.84 0 
  1936.63 2.5277e-15   1972.42 0 
  1945.57 2.6560e-15   1981.53 0 
  1954.55 2.5570e-15   1990.67 0 
  1968.10 2.7162e-15   2004.47 0 
  1977.18 2.7827e-15   2013.72 0 
  1981.74 2.6990e-15   2018.37 0 
  1995.48 2.6634e-15   2032.36 0 
  2004.69 2.7160e-15   2041.74 0 
  2013.94 2.7003e-15   2051.16 0 
  2023.23 2.7790e-15   2060.63 0 
  2037.26 2.7359e-15   2074.91 0 
  2046.66 2.8027e-15   2084.49 0 
  2056.11 2.7292e-15   2094.11 0 
  2065.60 2.7765e-15   2103.78 0 
  2075.13 2.9172e-15   2113.49 0 
  2079.92 2.8556e-15   2118.36 0 
  2084.71 2.9136e-15   2123.24 0 
  2094.34 2.8307e-15   2133.04 0 
  2104.00 2.8797e-15   2142.89 0 
  2113.71 2.9093e-15   2152.78 0 
  2123.47 2.9596e-15   2162.72 0 
  2133.27 2.8424e-15   2172.70 0 
  2143.12 2.9183e-15   2182.73 0 
  2153.01 2.9824e-15   2192.81 0 
  2162.95 2.9242e-15   2202.93 0 
  2172.93 2.9271e-15   2213.09 0 
  2182.96 2.9435e-15   2223.31 0 
  2193.04 3.0570e-15   2233.57 0 
  2203.16 3.0041e-15   2243.88 0 
  2213.33 2.9251e-15   2254.24 0 
  2223.55 2.8943e-15   2264.64 0 
  2233.81 3.0547e-15   2275.10 0 
  2244.12 2.9742e-15   2285.60 0 
  2254.48 2.9227e-15   2296.15 0 
  2264.88 2.9545e-15   2306.75 0 
  2275.34 3.0448e-15   2317.39 0 
  2285.84 3.1211e-15   2328.09 0 
  2296.39 3.0203e-15   2338.84 0 
  2306.99 3.0747e-15   2349.63 0 
  2317.64 3.0378e-15   2360.48 0 
  2322.98 2.6665e-15   2365.92 0 
  2333.71 2.9765e-15   2376.84 0 
  2344.48 2.8871e-15   2387.81 0 
  2355.30 3.0848e-15   2398.83 0 
  2366.17 2.9376e-15   2409.91 0 
  2377.09 3.0463e-15   2421.03 0 
  2382.57 2.8851e-15   2426.61 0 
  2393.57 3.0334e-15   2437.81 0 
  2404.62 2.9834e-15   2449.06 0 
  2415.72 3.0373e-15   2460.37 0 
  2426.87 3.1936e-15   2471.72 0 
  2432.46 3.1165e-15   2477.42 0 
  2443.69 3.2618e-15   2488.86 0 
  2454.97 3.2453e-15   2500.35 0 
  2466.30 3.2512e-15   2511.89 0 
  2477.69 3.1904e-15   2523.48 0 
  2483.40 3.2602e-15   2529.30 0 
  2494.86 3.1699e-15   2540.97 0 
  2506.38 3.4265e-15   2552.70 0 
  2512.15 3.2155e-15   2558.59 0 
  2517.94 3.2558e-15   2564.48 0 
  2523.75 3.1627e-15   2570.40 0 
  2535.40 3.2053e-15   2582.26 0 
  2547.10 3.2188e-15   2594.18 0 
  2552.97 3.4049e-15   2600.16 0 
  2564.76 3.3800e-15   2612.16 0 
  2576.59 3.5297e-15   2624.22 0 
  2582.54 3.5412e-15   2630.27 0 
  2594.46 3.5317e-15   2642.41 0 
  2606.43 3.4579e-15   2654.61 0 
  2612.44 3.4453e-15   2660.72 0 
  2624.50 3.5815e-15   2673.01 0 
  2636.61 3.6889e-15   2685.34 0 
  2642.69 3.9657e-15   2691.54 0 
  2654.89 4.0660e-15   2703.96 0 
  2667.14 3.8549e-15   2716.44 0 
  2673.29 3.9759e-15   2722.70 0 
  2685.63 4.0484e-15   2735.27 0 
  2698.03 3.9007e-15   2747.89 0 
  2704.25 4.0047e-15   2754.23 0 
  2716.73 3.8586e-15   2766.94 0 
  2722.99 3.8446e-15   2773.32 0 
  2735.56 4.0246e-15   2786.12 0 
  2741.87 3.6741e-15   2792.54 0 
  2754.52 3.7759e-15   2805.43 0 
  2767.24 3.9345e-15   2818.38 0 
  2773.62 4.0769e-15   2824.88 0 
  2786.42 3.9283e-15   2837.92 0 
  2792.84 3.3162e-15   2844.46 0 
  2805.73 3.5361e-15   2857.59 0 
  2812.20 4.1587e-15   2864.18 0 
  2825.18 4.3038e-15   2877.40 0 
  2838.22 4.2436e-15   2890.68 0 
  2844.76 4.1513e-15   2897.34 0 
  2857.89 4.0279e-15   2910.72 0 
  2864.48 4.3603e-15   2917.43 0 
  2877.70 4.4404e-15   2930.89 0 
  2884.34 4.4552e-15   2937.65 0 
  2897.65 4.4851e-15   2951.21 0 
  2911.03 4.8048e-15   2964.83 0 
  2931.20 4.7211e-15   2985.38 0 
  2951.52 4.7143e-15   3006.08 0 
  2971.98 4.8172e-15   3026.91 0 
  2992.58 4.8886e-15   3047.89 0 
  3013.33 4.9840e-15   3069.02 0 
  3027.24 5.0642e-15   3083.19 0 
  3048.22 5.1395e-15   3104.56 0 
  3069.35 5.1920e-15   3126.08 0 
  3090.62 5.2694e-15   3147.75 0 
  3112.05 5.3479e-15   3169.57 0 
  3126.41 5.3229e-15   3184.20 0 
  3148.08 5.3900e-15   3206.27 0 
  3169.91 5.5086e-15   3228.49 0 
  3191.88 5.3641e-15   3250.87 0 
  3206.61 5.5779e-15   3265.88 0 
  3228.84 5.4443e-15   3288.52 0 
  3251.22 5.8133e-15   3311.31 0 
  3273.76 6.0661e-15   3334.26 0 
  3288.87 6.0940e-15   3349.66 0 
  3311.66 6.1151e-15   3372.87 0 
  3319.30 6.0521e-15   3380.65 0 
  3326.95 6.0871e-15   3388.44 0 
  3334.62 6.3083e-15   3396.25 0 
  3342.31 5.9213e-15   3404.08 0 
  3350.01 6.1648e-15   3411.93 0 
  3357.73 6.0733e-15   3419.79 0 
  3365.47 5.5967e-15   3427.68 0 
  3373.23 5.5904e-15   3435.58 0 
  3381.01 5.9013e-15   3443.50 0 
  3388.80 6.2728e-15   3451.44 0 
  3396.61 6.0949e-15   3459.39 0 
  3404.44 6.2875e-15   3467.37 0 
  3412.29 6.0953e-15   3475.36 0 
  3420.16 6.3461e-15   3483.37 0 
  3428.04 6.4717e-15   3491.40 0 
  3435.94 6.5695e-15   3499.45 0 
  3443.87 6.0541e-15   3507.52 0 
  3451.80 6.6768e-15   3515.60 0 
  3459.76 6.4281e-15   3523.71 0 
  3467.74 6.4506e-15   3531.83 0 
  3475.73 6.6240e-15   3539.97 0 
  3483.74 6.5560e-15   3548.13 0 
  3491.78 6.8103e-15   3556.31 0 
  3499.82 6.2893e-15   3564.51 0 
  3507.89 6.7286e-15   3572.73 0 
  3515.98 6.4158e-15   3580.96 0 
  3524.08 6.5702e-15   3589.22 0 
  3532.21 6.7905e-15   3597.49 0 
  3540.35 6.9379e-15   3605.79 0 
  3548.51 7.2369e-15   3614.10 0 
  3556.69 7.1102e-15   3622.43 0 
  3564.89 7.1814e-15   3630.78 0 
  3573.11 6.6152e-15   3639.15 0 
  3581.35 6.5746e-15   3647.54 0 
  3589.60 6.0982e-15   3655.95 0 
  3597.88 6.7691e-15   3664.37 0 
  3606.17 6.8369e-15   3672.82 0 
  3607.63 5.2300e-15   3674.31 1 
  3610.33 8.2400e-15   3677.06 1 
  3613.03 7.3481e-15   3679.81 1 
  3615.73 7.1548e-15   3682.56 1 
  3618.43 7.2853e-15   3685.31 1 
  3621.13 7.5238e-15   3688.06 1 
  3623.83 6.8559e-15   3690.81 1 
  3626.53 8.4765e-15   3693.56 1 
  3629.23 6.1246e-15   3696.31 1 
  3631.93 5.5262e-15   3699.06 1 
  3634.63 7.1231e-15   3701.81 1 
  3637.33 9.8258e-15   3704.56 1 
  3640.03 7.5587e-15   3707.31 1 
  3642.73 8.5497e-15   3710.06 1 
  3645.43 8.9765e-15   3712.81 1 
  3648.13 7.0858e-15   3715.56 1 
  3650.83 7.2047e-15   3718.31 1 
  3653.53 9.3210e-15   3721.06 1 
  3656.23 6.4731e-15   3723.81 1 
  3658.93 8.5858e-15   3726.56 1 
  3661.63 7.9489e-15   3729.31 1 
  3664.33 5.7074e-15   3732.06 1 
  3667.03 7.6007e-15   3734.81 1 
  3669.73 7.9914e-15   3737.56 1 
  3672.43 7.2205e-15   3740.31 1 
  3675.13 6.8900e-15   3743.06 1 
  3677.83 6.8593e-15   3745.81 1 
  3680.53 5.2113e-15   3748.56 1 
  3683.23 6.8807e-15   3751.31 1 
  3685.93 7.6375e-15   3754.06 1 
  3688.63 7.0549e-15   3756.81 1 
  3691.33 9.2803e-15   3759.56 1 
  3694.03 7.2064e-15   3762.31 1 
  3696.73 7.2763e-15   3765.06 1 
  3699.43 8.4498e-15   3767.81 1 
  3702.13 7.6705e-15   3770.56 1 
  3704.83 8.3039e-15   3773.31 1 
  3707.53 8.7477e-15   3776.06 1 
  3710.23 8.2570e-15   3778.81 1 
  3712.93 7.6418e-15   3781.56 1 
  3715.63 8.5367e-15   3784.31 1 
  3718.33 9.6157e-15   3787.06 1 
  3721.03 1.2699e-14   3789.81 1 
  3723.73 1.7668e-14   3792.56 1 
  3726.43 1.7515e-14   3795.31 1 
  3729.13 1.3098e-14   3798.06 1 
  3731.83 1.0908e-14   3800.81 1 
  3734.53 8.3210e-15   3803.56 1 
  3737.23 6.9186e-15   3806.31 1 
  3739.93 6.7954e-15   3809.06 1 
  3742.63 6.8914e-15   3811.81 1 
  3745.34 6.7688e-15   3814.56 1 
  3748.04 8.6441e-15   3817.31 1 
  3750.74 8.2398e-15   3820.06 1 
  3753.44 7.6229e-15   3822.81 1 
  3756.14 8.6914e-15   3825.56 1 
  3758.84 8.3680e-15   3828.31 1 
  3761.54 8.0309e-15   3831.06 1 
  3764.24 6.8100e-15   3833.81 1 
  3766.94 8.2481e-15   3836.56 1 
  3769.64 7.9566e-15   3839.31 1 
  3772.34 8.7018e-15   3842.06 1 
  3775.04 8.4754e-15   3844.81 1 
  3777.74 1.1055e-14   3847.56 1 
  3780.44 1.0953e-14   3850.31 1 
  3783.14 8.7871e-15   3853.06 1 
  3785.84 1.0562e-14   3855.81 1 
  3788.54 8.8582e-15   3858.56 1 
  3791.24 8.2967e-15   3861.31 1 
  3793.94 7.9811e-15   3864.06 1 
  3796.64 8.1478e-15   3866.81 1 
  3799.34 8.0957e-15   3869.56 1 
  3802.04 1.0019e-14   3872.31 1 
  3804.74 9.4150e-15   3875.06 1 
  3807.44 9.0627e-15   3877.81 1 
  3810.14 9.4861e-15   3880.56 1 
  3812.84 9.3754e-15   3883.31 1 
  3815.54 8.2225e-15   3886.06 1 
  3818.24 9.3589e-15   3888.81 1 
  3820.94 9.3665e-15   3891.56 1 
  3823.64 8.9220e-15   3894.31 1 
  3826.34 7.4470e-15   3897.06 1 
  3829.04 7.9361e-15   3899.81 1 
  3831.74 7.2914e-15   3902.56 1 
  3834.44 8.5753e-15   3905.31 1 
  3837.14 8.0484e-15   3908.06 1 
  3839.84 8.8694e-15   3910.81 1 
  3842.54 9.2311e-15   3913.56 1 
  3845.24 9.8534e-15   3916.31 1 
  3847.94 1.0840e-14   3919.06 1 
  3850.64 1.0114e-14   3921.81 1 
  3853.34 1.0908e-14   3924.56 1 
  3856.04 1.0755e-14   3927.31 1 
  3858.74 1.1226e-14   3930.06 1 
  3861.44 1.1030e-14   3932.81 1 
  3864.14 1.1367e-14   3935.56 1 
  3866.84 1.1273e-14   3938.31 1 
  3869.54 1.1080e-14   3941.06 1 
  3872.24 9.3874e-15   3943.81 1 
  3874.94 9.8207e-15   3946.56 1 
  3877.64 9.4142e-15   3949.31 1 
  3880.34 1.0065e-14   3952.06 1 
  3883.04 8.3216e-15   3954.81 1 
  3885.74 8.5232e-15   3957.56 1 
  3888.44 8.2018e-15   3960.31 1 
  3891.14 9.4308e-15   3963.06 1 
  3893.84 8.4944e-15   3965.81 1 
  3896.54 9.6132e-15   3968.56 1 
  3899.24 1.0398e-14   3971.31 1 
  3901.94 1.0756e-14   3974.06 1 
  3904.64 1.1152e-14   3976.81 1 
  3907.34 1.1148e-14   3979.56 1 
  3910.04 1.1816e-14   3982.31 1 
  3912.74 1.0787e-14   3985.06 1 
  3915.44 1.1214e-14   3987.81 1 
  3918.14 1.1660e-14   3990.56 1 
  3920.84 1.0760e-14   3993.31 1 
  3923.54 1.0258e-14   3996.06 1 
  3926.24 8.2640e-15   3998.81 1 
  3928.94 8.2031e-15   4001.56 1 
  3931.64 7.6180e-15   4004.31 1 
  3934.34 9.6046e-15   4007.06 1 
  3937.04 9.8813e-15   4009.81 1 
  3939.74 1.0422e-14   4012.56 1 
  3942.44 1.1238e-14   4015.31 1 
  3945.14 1.1505e-14   4018.06 1 
  3947.84 1.1882e-14   4020.81 1 
  3950.54 1.1103e-14   4023.56 1 
  3953.24 1.1573e-14   4026.31 1 
  3955.94 1.1330e-14   4029.06 1 
  3958.64 9.7342e-15   4031.81 1 
  3961.34 9.8145e-15   4034.56 1 
  3964.04 7.9027e-15   4037.31 1 
  3966.74 8.0380e-15   4040.06 1 
  3969.44 8.4669e-15   4042.81 1 
  3972.14 8.7116e-15   4045.56 1 
  3974.84 9.3800e-15   4048.31 1 
  3977.54 1.0309e-14   4051.06 1 
  3980.24 1.0839e-14   4053.81 1 
  3982.94 1.1594e-14   4056.56 1 
  3985.64 1.2492e-14   4059.31 1 
  3988.34 1.2579e-14   4062.06 1 
  3991.04 1.2350e-14   4064.81 1 
  3993.74 1.2256e-14   4067.56 1 
  3996.44 1.2598e-14   4070.31 1 
  3999.14 1.2736e-14   4073.06 1 
  4001.84 1.3533e-14   4075.81 1 
  4004.54 1.3569e-14   4078.56 1 
  4007.24 1.3486e-14   4081.31 1 
  4009.94 1.4080e-14   4084.06 1 
  4012.64 1.3857e-14   4086.81 1 
  4015.34 1.3760e-14   4089.56 1 
  4018.04 1.3494e-14   4092.31 1 
  4020.74 1.2844e-14   4095.06 1 
  4023.44 1.3387e-14   4097.81 1 
  4026.14 1.2531e-14   4100.56 1 
  4028.84 1.3282e-14   4103.31 1 
  4031.55 1.3553e-14   4106.06 1 
  4034.25 1.2907e-14   4108.81 1 
  4036.95 1.3019e-14   4111.56 1 
  4039.65 1.3570e-14   4114.31 1 
  4042.35 1.2875e-14   4117.06 1 
  4045.05 1.2909e-14   4119.81 1 
  4047.75 1.3361e-14   4122.56 1 
  4050.45 1.2787e-14   4125.31 1 
  4053.15 1.2798e-14   4128.06 1 
  4055.85 1.3504e-14   4130.81 1 
  4058.55 1.2578e-14   4133.56 1 
  4061.25 1.3183e-14   4136.31 1 
  4063.95 1.2533e-14   4139.06 1 
  4066.65 1.1945e-14   4141.81 1 
  4069.35 1.2332e-14   4144.56 1 
  4072.05 1.2087e-14   4147.31 1 
  4074.75 1.2720e-14   4150.06 1 
  4077.45 1.2414e-14   4152.81 1 
  4080.15 1.1876e-14   4155.56 1 
  4082.85 1.1815e-14   4158.31 1 
  4085.55 1.2295e-14   4161.06 1 
  4088.25 1.2686e-14   4163.81 1 
  4090.95 1.2007e-14   4166.56 1 
  4093.65 1.1559e-14   4169.31 1 
  4096.35 1.1276e-14   4172.06 1 
  4099.05 1.0939e-14   4174.81 1 
  4101.75 1.0945e-14   4177.56 1 
  4104.45 1.1623e-14   4180.31 1 
  4107.15 1.1764e-14   4183.06 1 
  4109.85 1.2461e-14   4185.81 1 
  4112.55 1.3075e-14   4188.56 1 
  4115.25 1.2413e-14   4191.31 1 
  4117.95 1.2105e-14   4194.06 1 
  4120.65 1.2686e-14   4196.81 1 
  4123.35 1.3395e-14   4199.56 1 
  4126.05 1.3207e-14   4202.31 1 
  4128.75 1.2781e-14   4205.06 1 
  4131.45 1.2891e-14   4207.81 1 
  4134.15 1.2746e-14   4210.56 1 
