# An Atlas of Galaxy Spectral Energy Distributions from the Ultraviolet to the Mid-Infrared
# Brown et al. (2014)
# http://dx.doi.org/10.5072/03/529D3551F0117
# 
# Column 1 : Restframe Wavelength (Angstrom)
# Column 2 : Flux per unit wavelength (ergs/s/cm^2/Angstrom)
# Column 3 : Observed wavelength (Angstrom)
# Column 4 : Source (0 = model, 1 = Optical Spectrum, 2 = Akari, 3 = Spitzer IRS)
# 
   100.05 1.1868e-36    103.99 0 
   101.91 2.7229e-36    105.93 0 
   104.05 5.5286e-36    108.14 0 
   105.98 1.1304e-35    110.15 0 
   107.95 2.3273e-35    112.20 0 
   109.96 5.3638e-35    114.29 0 
   114.09 1.8564e-34    118.58 0 
   118.10 5.7264e-34    122.74 0 
   121.12 4.1715e-33    125.89 0 
   125.09 1.1105e-32    130.02 0 
   127.13 1.7184e-32    132.13 0 
   128.01 2.1774e-32    133.05 0 
   130.99 4.0305e-32    136.14 0 
   131.90 5.6779e-32    137.09 0 
   134.04 8.3323e-32    139.32 0 
   136.85 1.7188e-31    142.23 0 
   140.03 2.9757e-31    145.55 0 
   142.97 1.2735e-30    148.59 0 
   146.97 5.1788e-30    152.76 0 
   151.09 9.6921e-30    157.04 0 
   154.96 1.7810e-29    161.06 0 
   158.94 3.2201e-29    165.20 0 
   161.89 4.9010e-29    168.27 0 
   166.05 8.5205e-29    172.58 0 
   169.92 1.4214e-28    176.60 0 
   173.07 2.0801e-28    179.89 0 
   177.11 3.3595e-28    184.08 0 
   179.98 4.7501e-28    187.07 0 
   182.07 5.9469e-28    189.23 0 
   185.88 9.2371e-28    193.20 0 
   191.09 1.5649e-27    198.61 0 
   194.19 2.1374e-27    201.84 0 
   197.80 3.1562e-27    205.59 0 
   201.94 4.6274e-27    209.89 0 
   205.23 6.1049e-27    213.30 0 
   210.01 9.1143e-27    218.27 0 
   215.89 1.5832e-26    224.39 0 
   219.90 2.2067e-26    228.56 0 
   222.96 2.7677e-26    231.74 0 
   227.11 3.7957e-26    236.05 0 
   229.74 6.4977e-26    238.78 0 
   234.01 1.2328e-25    243.22 0 
   240.01 2.2371e-25    249.46 0 
   246.17 3.0092e-25    255.86 0 
   251.90 4.5424e-25    261.82 0 
   257.18 5.0491e-25    267.30 0 
   260.15 6.8804e-25    270.40 0 
   263.77 8.9305e-25    274.16 0 
   269.30 1.1528e-24    279.90 0 
   274.30 1.4647e-24    285.10 0 
   278.76 1.8485e-24    289.73 0 
   283.94 2.3430e-24    295.12 0 
   289.89 2.9211e-24    301.30 0 
   295.96 3.8221e-24    307.61 0 
   300.77 4.5848e-24    312.61 0 
   307.77 6.1642e-24    319.89 0 
   317.86 9.1369e-24    330.37 0 
   328.27 1.3051e-23    341.19 0 
   338.25 1.8054e-23    351.56 0 
   347.72 2.4468e-23    361.41 0 
   356.64 3.2266e-23    370.68 0 
   365.79 4.2739e-23    380.19 0 
   375.17 5.4307e-23    389.94 0 
   384.80 6.7272e-23    399.94 0 
   394.67 9.0105e-23    410.20 0 
   404.79 1.1658e-22    420.73 0 
   414.22 1.4145e-22    430.53 0 
   421.92 1.6442e-22    438.53 0 
   429.77 1.9200e-22    446.68 0 
   440.79 2.4318e-22    458.14 0 
   451.06 2.9156e-22    468.81 0 
   460.50 3.3550e-22    478.63 0 
   470.14 3.9959e-22    488.65 0 
   479.99 4.7916e-22    498.88 0 
   490.04 5.4613e-22    509.33 0 
   500.30 6.5926e-22    520.00 0 
   506.09 7.4781e-22    526.02 0 
   511.96 1.3505e-21    532.11 0 
   520.27 1.5620e-21    540.75 0 
   529.95 1.8474e-21    550.81 0 
   539.80 2.0248e-21    561.05 0 
   549.83 3.0350e-21    571.48 0 
   560.06 4.0168e-21    582.10 0 
   570.47 5.1116e-21    592.93 0 
   579.74 5.5142e-21    602.56 0 
   590.52 7.6044e-21    613.76 0 
   600.11 8.8696e-21    623.73 0 
   609.86 1.1500e-20    633.87 0 
   619.77 1.4705e-20    644.17 0 
   629.84 1.7749e-20    654.64 0 
   640.08 1.9762e-20    665.27 0 
   650.48 2.5029e-20    676.08 0 
   658.01 2.9155e-20    683.91 0 
   665.63 3.2882e-20    691.83 0 
   674.89 3.6126e-20    701.46 0 
   684.28 3.9233e-20    711.21 0 
   695.40 5.6113e-20    722.77 0 
   705.07 5.8453e-20    732.82 0 
   716.53 7.6758e-20    744.73 0 
   726.49 8.6853e-20    755.09 0 
   734.91 9.7006e-20    763.84 0 
   745.13 1.1978e-19    774.46 0 
   755.50 1.3865e-19    785.24 0 
   764.24 1.5879e-19    794.33 0 
   774.88 1.8633e-19    805.38 0 
   785.65 2.1613e-19    816.58 0 
   794.75 2.4128e-19    826.04 0 
   805.81 2.6968e-19    837.53 0 
   815.14 2.9825e-19    847.23 0 
   824.58 3.5098e-19    857.04 0 
   834.13 3.0196e-19    866.96 0 
   845.73 4.1601e-19    879.02 0 
   855.52 4.5467e-19    889.20 0 
   865.43 5.2029e-19    899.50 0 
   875.45 5.9397e-19    909.91 0 
   885.59 6.8745e-19    920.45 0 
   895.84 7.6856e-19    931.11 0 
   904.13 8.0464e-19    939.72 0 
   914.60 1.3739e-18    950.60 0 
   925.19 1.0972e-17    961.61 0 
   935.91 2.5857e-17    972.75 0 
   944.57 5.3011e-17    981.75 0 
   955.50 8.0274e-17    993.12 0 
   964.34 9.2962e-17   1002.31 0 
   975.51 1.4042e-17   1013.91 0 
   984.54 8.1676e-17   1023.29 0 
   995.94 9.3355e-17   1035.14 0 
  1005.15 1.4884e-16   1044.72 0 
  1014.45 1.5077e-16   1054.39 0 
  1023.84 6.6349e-17   1064.14 0 
  1035.70 1.0907e-16   1076.47 0 
  1045.28 2.2971e-16   1086.43 0 
  1054.95 2.3421e-16   1096.48 0 
  1064.71 1.8621e-16   1106.62 0 
  1074.56 2.3461e-16   1116.86 0 
  1084.51 1.8650e-16   1127.20 0 
  1094.54 2.6605e-16   1137.63 0 
  1104.67 2.6621e-16   1148.15 0 
  1114.89 2.6329e-16   1158.78 0 
  1125.21 2.4412e-16   1169.50 0 
  1135.62 3.2866e-16   1180.32 0 
  1146.12 3.0539e-16   1191.24 0 
  1154.07 3.3935e-16   1199.50 0 
  1164.75 3.6197e-16   1210.60 0 
  1175.52 2.5157e-16   1221.80 0 
  1183.67 3.6930e-16   1230.27 0 
  1194.63 2.4563e-16   1241.65 0 
  1205.68 1.7424e-16   1253.14 0 
  1214.04 1.2439e-16   1261.83 0 
  1225.27 2.7075e-16   1273.50 0 
  1233.76 4.4170e-16   1282.33 0 
  1245.18 5.0797e-16   1294.20 0 
  1253.81 4.9813e-16   1303.17 0 
  1265.41 4.2557e-16   1315.22 0 
  1274.18 6.0035e-16   1324.34 0 
  1285.97 6.5606e-16   1336.60 0 
  1294.89 5.1918e-16   1345.86 0 
  1303.86 5.1128e-16   1355.19 0 
  1315.93 6.8559e-16   1367.73 0 
  1325.05 6.7505e-16   1377.21 0 
  1334.23 5.9783e-16   1386.76 0 
  1343.48 7.5646e-16   1396.37 0 
  1355.91 7.4304e-16   1409.29 0 
  1365.31 6.6704e-16   1419.06 0 
  1374.78 7.2988e-16   1428.89 0 
  1384.31 7.5217e-16   1438.80 0 
  1393.90 6.7975e-16   1448.77 0 
  1403.56 7.1837e-16   1458.81 0 
  1416.55 7.3163e-16   1472.31 0 
  1426.37 7.7841e-16   1482.52 0 
  1436.26 7.7640e-16   1492.79 0 
  1442.89 8.4137e-16   1499.69 0 
  1446.21 8.7484e-16   1503.14 0 
  1456.24 8.5651e-16   1513.56 0 
  1466.33 7.9341e-16   1524.05 0 
  1476.50 8.0209e-16   1534.62 0 
  1483.31 8.4336e-16   1541.70 0 
  1493.59 8.8039e-16   1552.39 0 
  1503.94 8.4779e-16   1563.15 0 
  1510.89 7.4991e-16   1570.36 0 
  1517.86 8.2170e-16   1577.61 0 
  1524.87 7.8776e-16   1584.89 0 
  1535.44 6.8530e-16   1595.88 0 
  1546.08 8.0228e-16   1606.94 0 
  1553.22 7.5845e-16   1614.36 0 
  1563.98 7.6965e-16   1625.55 0 
  1574.82 8.3679e-16   1636.82 0 
  1585.74 9.0134e-16   1648.16 0 
  1596.73 9.3780e-16   1659.59 0 
  1604.10 9.2804e-16   1667.25 0 
  1615.22 9.4342e-16   1678.80 0 
  1626.42 8.8878e-16   1690.44 0 
  1633.92 9.6640e-16   1698.24 0 
  1645.25 9.9806e-16   1710.02 0 
  1656.65 9.1222e-16   1721.87 0 
  1664.30 1.0265e-15   1729.82 0 
  1671.98 8.8636e-16   1737.80 0 
  1675.84 1.0357e-15   1741.81 0 
  1683.57 1.1103e-15   1749.85 0 
  1695.24 1.0427e-15   1761.98 0 
  1703.07 1.0053e-15   1770.11 0 
  1714.87 9.5713e-16   1782.38 0 
  1726.76 9.5844e-16   1794.73 0 
  1734.73 1.0389e-15   1803.02 0 
  1746.75 1.0235e-15   1815.52 0 
  1754.82 1.1170e-15   1823.90 0 
  1766.98 1.0102e-15   1836.54 0 
  1775.14 1.0600e-15   1845.02 0 
  1783.33 1.0893e-15   1853.53 0 
  1795.69 1.1813e-15   1866.38 0 
  1803.98 1.1780e-15   1874.99 0 
  1816.49 1.0920e-15   1887.99 0 
  1824.87 1.1218e-15   1896.71 0 
  1833.29 1.0803e-15   1905.46 0 
  1846.00 9.9193e-16   1918.67 0 
  1854.52 1.0070e-15   1927.53 0 
  1863.08 1.0461e-15   1936.42 0 
  1876.00 1.1437e-15   1949.84 0 
  1884.66 1.0611e-15   1958.84 0 
  1893.35 1.0283e-15   1967.89 0 
  1906.48 1.0831e-15   1981.53 0 
  1915.28 1.0567e-15   1990.67 0 
  1924.12 1.0501e-15   1999.86 0 
  1933.00 1.0850e-15   2009.09 0 
  1946.40 1.1290e-15   2023.02 0 
  1955.38 1.0661e-15   2032.36 0 
  1968.94 1.1719e-15   2046.45 0 
  1978.03 1.2075e-15   2055.89 0 
  1982.58 1.1452e-15   2060.63 0 
  1996.33 1.1085e-15   2074.91 0 
  2005.54 1.1471e-15   2084.49 0 
  2014.80 1.1026e-15   2094.11 0 
  2024.10 1.1646e-15   2103.78 0 
  2033.44 1.1063e-15   2113.49 0 
  2042.83 1.1602e-15   2123.24 0 
  2056.99 1.1038e-15   2137.96 0 
  2066.48 1.1077e-15   2147.83 0 
  2076.02 1.1882e-15   2157.74 0 
  2085.60 1.1703e-15   2167.70 0 
  2095.23 1.1082e-15   2177.71 0 
  2104.90 1.1141e-15   2187.76 0 
  2114.62 1.1224e-15   2197.86 0 
  2124.38 1.1436e-15   2208.01 0 
  2134.18 1.0505e-15   2218.20 0 
  2144.04 1.0850e-15   2228.44 0 
  2153.93 1.1282e-15   2238.72 0 
  2163.87 1.0896e-15   2249.05 0 
  2173.86 1.0767e-15   2259.44 0 
  2183.90 1.0564e-15   2269.86 0 
  2193.98 1.1105e-15   2280.34 0 
  2204.10 1.0743e-15   2290.87 0 
  2214.28 1.0179e-15   2301.44 0 
  2224.50 9.8082e-16   2312.07 0 
  2234.77 1.0621e-15   2322.74 0 
  2245.08 1.0198e-15   2333.46 0 
  2255.44 9.9738e-16   2344.23 0 
  2265.85 1.0381e-15   2355.05 0 
  2276.31 1.0829e-15   2365.92 0 
  2286.82 1.1219e-15   2376.84 0 
  2297.38 1.0773e-15   2387.81 0 
  2302.67 1.0790e-15   2393.32 0 
  2313.30 1.0433e-15   2404.36 0 
  2323.98 8.2378e-16   2415.46 0 
  2334.70 1.0005e-15   2426.61 0 
  2345.48 9.8311e-16   2437.81 0 
  2356.31 1.0765e-15   2449.06 0 
  2367.18 1.0033e-15   2460.37 0 
  2372.64 1.0450e-15   2466.04 0 
  2383.59 9.8298e-16   2477.42 0 
  2394.59 1.0690e-15   2488.86 0 
  2405.65 1.0337e-15   2500.35 0 
  2416.75 1.0711e-15   2511.89 0 
  2422.32 1.1391e-15   2517.68 0 
  2433.50 1.1040e-15   2529.30 0 
  2444.74 1.1842e-15   2540.97 0 
  2456.02 1.1719e-15   2552.70 0 
  2467.36 1.1839e-15   2564.48 0 
  2473.04 1.1536e-15   2570.40 0 
  2484.46 1.2177e-15   2582.26 0 
  2495.93 1.1614e-15   2594.18 0 
  2507.45 1.2926e-15   2606.15 0 
  2513.23 1.1836e-15   2612.16 0 
  2519.02 1.2301e-15   2618.18 0 
  2524.83 1.1740e-15   2624.22 0 
  2536.48 1.1945e-15   2636.33 0 
  2542.33 1.1828e-15   2642.41 0 
  2554.06 1.2718e-15   2654.61 0 
  2565.85 1.2674e-15   2666.86 0 
  2577.70 1.3533e-15   2679.17 0 
  2583.64 1.3557e-15   2685.34 0 
  2595.57 1.3542e-15   2697.74 0 
  2607.55 1.3249e-15   2710.19 0 
  2613.56 1.3242e-15   2716.44 0 
  2625.62 1.3915e-15   2728.98 0 
  2637.74 1.4223e-15   2741.57 0 
  2643.82 1.5373e-15   2747.89 0 
  2656.02 1.5535e-15   2760.58 0 
  2662.15 1.4557e-15   2766.94 0 
  2674.43 1.5333e-15   2779.71 0 
  2686.78 1.5317e-15   2792.54 0 
  2692.97 1.4961e-15   2798.98 0 
  2705.40 1.5399e-15   2811.90 0 
  2717.89 1.4999e-15   2824.88 0 
  2724.15 1.5200e-15   2831.39 0 
  2736.73 1.6085e-15   2844.46 0 
  2743.04 1.4395e-15   2851.02 0 
  2755.70 1.4682e-15   2864.18 0 
  2762.05 1.5226e-15   2870.78 0 
  2774.80 1.6076e-15   2884.03 0 
  2787.61 1.5767e-15   2897.34 0 
  2794.04 1.2869e-15   2904.02 0 
  2806.93 1.4033e-15   2917.43 0 
  2813.40 1.6709e-15   2924.15 0 
  2826.39 1.7241e-15   2937.65 0 
  2832.91 1.6649e-15   2944.42 0 
  2845.98 1.6519e-15   2958.01 0 
  2852.54 1.6474e-15   2964.83 0 
  2865.71 1.7516e-15   2978.52 0 
  2872.31 1.7348e-15   2985.38 0 
  2885.57 1.7655e-15   2999.16 0 
  2892.22 1.7486e-15   3006.08 0 
  2912.27 1.8843e-15   3026.91 0 
  2932.46 1.8648e-15   3047.89 0 
  2952.79 1.8798e-15   3069.02 0 
  2973.25 1.9259e-15   3090.30 0 
  2986.98 1.9602e-15   3104.56 0 
  3007.68 2.0083e-15   3126.08 0 
  3028.53 2.0340e-15   3147.75 0 
  3049.52 2.0554e-15   3169.57 0 
  3070.66 2.0771e-15   3191.54 0 
  3091.95 2.1234e-15   3213.66 0 
  3113.38 2.1311e-15   3235.94 0 
  3127.75 2.1446e-15   3250.87 0 
  3149.43 2.1875e-15   3273.41 0 
  3171.26 2.2109e-15   3296.10 0 
  3193.24 2.1687e-15   3318.94 0 
  3207.98 2.2437e-15   3334.26 0 
  3230.22 2.2316e-15   3357.38 0 
  3252.61 2.3029e-15   3380.65 0 
  3267.62 2.3554e-15   3396.25 0 
  3290.27 2.3864e-15   3419.79 0 
  3313.08 2.4179e-15   3443.50 0 
  3320.72 2.4567e-15   3451.44 0 
  3328.37 2.4674e-15   3459.39 0 
  3336.04 2.5012e-15   3467.37 0 
  3343.73 2.4269e-15   3475.36 0 
  3351.44 2.4887e-15   3483.37 0 
  3359.17 2.4427e-15   3491.40 0 
  3366.91 2.4535e-15   3499.45 0 
  3374.68 2.3807e-15   3507.52 0 
  3382.45 2.4245e-15   3515.60 0 
  3390.25 2.5441e-15   3523.71 0 
  3398.07 2.5553e-15   3531.83 0 
  3405.90 2.5025e-15   3539.97 0 
  3413.75 2.5251e-15   3548.13 0 
  3421.62 2.6134e-15   3556.31 0 
  3429.51 2.6054e-15   3564.51 0 
  3437.41 2.6374e-15   3572.73 0 
  3445.34 2.5147e-15   3580.96 0 
  3453.28 2.6656e-15   3589.22 0 
  3461.24 2.5241e-15   3597.49 0 
  3469.22 2.5670e-15   3605.79 0 
  3477.22 2.5219e-15   3614.10 0 
  3485.23 2.5766e-15   3622.43 0 
  3493.27 2.5963e-15   3630.78 0 
  3501.32 2.6162e-15   3639.15 0 
  3509.39 2.5703e-15   3647.54 0 
  3517.48 2.5427e-15   3655.95 0 
  3525.59 2.6219e-15   3664.37 0 
  3533.72 2.6849e-15   3672.82 0 
  3534.23 4.3677e-15   3673.35 1 
  3536.87 8.2527e-16   3676.10 1 
  3539.52 1.7713e-15   3678.85 1 
  3542.16 -3.5757e-16   3681.60 1 
  3544.81 5.1523e-15   3684.35 1 
  3547.45 4.2363e-15   3687.10 1 
  3550.10 4.5486e-15   3689.85 1 
  3552.75 4.7144e-15   3692.60 1 
  3555.39 1.7969e-15   3695.35 1 
  3558.04 2.7652e-15   3698.10 1 
  3560.68 4.6740e-15   3700.85 1 
  3563.33 1.6694e-15   3703.60 1 
  3565.98 7.9149e-17   3706.35 1 
  3568.62 3.4657e-15   3709.10 1 
  3571.27 1.2122e-15   3711.85 1 
  3573.91 5.7366e-15   3714.60 1 
  3576.56 4.1401e-15   3717.35 1 
  3579.20 2.8255e-15   3720.10 1 
  3581.85 4.0163e-15   3722.85 1 
  3584.50 3.2862e-15   3725.60 1 
  3587.14 4.0668e-15   3728.35 1 
  3589.79 4.8719e-15   3731.10 1 
  3592.43 2.4693e-15   3733.85 1 
  3595.08 1.3267e-15   3736.60 1 
  3597.73 2.4808e-16   3739.35 1 
  3600.37 1.8433e-16   3742.10 1 
  3603.02 4.4776e-15   3744.85 1 
  3605.66 1.5975e-15   3747.60 1 
  3608.31 2.8482e-15   3750.35 1 
  3610.95 1.9063e-15   3753.10 1 
  3613.60 1.1222e-15   3755.85 1 
  3616.25 1.8761e-15   3758.60 1 
  3618.89 1.3434e-15   3761.35 1 
  3621.54 1.9567e-15   3764.10 1 
  3624.18 3.2642e-15   3766.85 1 
  3626.83 3.5395e-15   3769.60 1 
  3629.48 1.9635e-15   3772.35 1 
  3632.12 2.2867e-15   3775.10 1 
  3634.77 3.0762e-15   3777.85 1 
  3637.41 3.5368e-15   3780.60 1 
  3640.06 2.8051e-15   3783.35 1 
  3642.71 4.1648e-15   3786.10 1 
  3645.35 2.8548e-15   3788.85 1 
  3648.00 3.1597e-15   3791.60 1 
  3650.64 2.7673e-15   3794.35 1 
  3653.29 2.6308e-15   3797.10 1 
  3655.93 1.9060e-15   3799.85 1 
  3658.58 1.6949e-15   3802.60 1 
  3661.23 2.6385e-15   3805.35 1 
  3663.87 5.2071e-15   3808.10 1 
  3666.52 4.9571e-15   3810.85 1 
  3669.16 3.4056e-16   3813.60 1 
  3671.81 2.5793e-15   3816.35 1 
  3674.46 2.5189e-15   3819.10 1 
  3677.10 3.5508e-15   3821.85 1 
  3679.75 2.4061e-15   3824.60 1 
  3682.39 5.1727e-15   3827.35 1 
  3685.04 3.5130e-15   3830.10 1 
  3687.68 3.5955e-15   3832.85 1 
  3690.33 1.3889e-15   3835.60 1 
  3692.98 1.5660e-15   3838.35 1 
  3695.62 2.4692e-15   3841.10 1 
  3698.27 2.5997e-15   3843.85 1 
  3700.91 1.1503e-15   3846.60 1 
  3703.56 2.7977e-15   3849.35 1 
  3706.21 2.5149e-15   3852.10 1 
  3708.85 4.4142e-15   3854.85 1 
  3711.50 3.0135e-15   3857.60 1 
  3714.14 5.0218e-15   3860.35 1 
  3716.79 2.9452e-15   3863.10 1 
  3719.43 2.3321e-15   3865.85 1 
  3722.08 4.0840e-15   3868.60 1 
  3724.73 4.9325e-15   3871.35 1 
  3727.37 4.8156e-15   3874.10 1 
  3730.02 7.0915e-15   3876.85 1 
  3732.66 3.4460e-15   3879.60 1 
  3735.31 4.2169e-15   3882.35 1 
  3737.96 3.3305e-15   3885.10 1 
  3740.60 3.4161e-15   3887.85 1 
  3743.25 2.4492e-15   3890.60 1 
  3745.89 1.9475e-15   3893.35 1 
  3748.54 4.8330e-15   3896.10 1 
  3751.18 1.2283e-15   3898.85 1 
  3753.83 4.2966e-15   3901.60 1 
  3756.48 4.0363e-15   3904.35 1 
  3759.12 2.8502e-15   3907.10 1 
  3761.77 2.9430e-15   3909.85 1 
  3764.41 2.7360e-15   3912.60 1 
  3767.06 2.6844e-15   3915.35 1 
  3769.71 1.4613e-15   3918.10 1 
  3772.35 2.1591e-15   3920.85 1 
  3775.00 3.0548e-15   3923.60 1 
  3777.64 2.9224e-15   3926.35 1 
  3780.29 4.0780e-15   3929.10 1 
  3782.93 5.1247e-15   3931.85 1 
  3785.58 4.1833e-15   3934.60 1 
  3788.23 4.6753e-15   3937.35 1 
  3790.87 3.9254e-15   3940.10 1 
  3793.52 3.6352e-15   3942.85 1 
  3796.16 1.4467e-15   3945.60 1 
  3798.81 1.3696e-15   3948.35 1 
  3801.46 2.1604e-15   3951.10 1 
  3804.10 2.6269e-15   3953.85 1 
  3806.75 3.7103e-15   3956.60 1 
  3809.39 2.0352e-15   3959.35 1 
  3812.04 4.0112e-15   3962.10 1 
  3814.69 3.9912e-15   3964.85 1 
  3817.33 4.5857e-15   3967.60 1 
  3819.98 4.9657e-15   3970.35 1 
  3822.62 5.0235e-15   3973.10 1 
  3825.27 2.9768e-15   3975.85 1 
  3827.91 3.3292e-15   3978.60 1 
  3830.56 4.0398e-15   3981.35 1 
  3833.21 3.4556e-15   3984.10 1 
  3835.85 3.3790e-15   3986.85 1 
  3838.50 4.5359e-15   3989.60 1 
  3841.14 4.3733e-15   3992.35 1 
  3843.79 3.9817e-15   3995.10 1 
  3846.44 4.6940e-15   3997.85 1 
  3849.08 4.4022e-15   4000.60 1 
  3851.73 4.8715e-15   4003.35 1 
  3854.37 3.8380e-15   4006.10 1 
  3857.02 4.8063e-15   4008.85 1 
  3859.66 4.6036e-15   4011.60 1 
  3862.31 4.8290e-15   4014.35 1 
  3864.96 4.4460e-15   4017.10 1 
  3867.60 4.6600e-15   4019.85 1 
  3870.25 4.6078e-15   4022.60 1 
  3872.89 2.8416e-15   4025.35 1 
  3875.54 3.6405e-15   4028.10 1 
  3878.19 3.8555e-15   4030.85 1 
  3880.83 2.9985e-15   4033.60 1 
  3883.48 3.6439e-15   4036.35 1 
  3886.12 4.7821e-15   4039.10 1 
  3888.77 6.1927e-15   4041.85 1 
  3891.41 5.5379e-15   4044.60 1 
  3894.06 4.2162e-15   4047.35 1 
  3896.71 4.2744e-15   4050.10 1 
  3899.35 4.6505e-15   4052.85 1 
  3902.00 5.1439e-15   4055.60 1 
  3904.64 5.4285e-15   4058.35 1 
  3907.29 6.1409e-15   4061.10 1 
  3909.94 4.3047e-15   4063.85 1 
  3912.58 5.2332e-15   4066.60 1 
  3915.23 6.0166e-15   4069.35 1 
  3917.87 5.5034e-15   4072.10 1 
  3920.52 4.0648e-15   4074.85 1 
  3923.16 3.8218e-15   4077.60 1 
  3925.81 5.1995e-15   4080.35 1 
  3928.46 4.9123e-15   4083.10 1 
  3931.10 3.9293e-15   4085.85 1 
  3933.75 4.6199e-15   4088.60 1 
  3936.39 4.7203e-15   4091.35 1 
  3939.04 4.2989e-15   4094.10 1 
  3941.69 5.2617e-15   4096.85 1 
  3944.33 4.8020e-15   4099.60 1 
  3946.98 3.6849e-15   4102.35 1 
  3949.62 5.0786e-15   4105.10 1 
  3952.27 5.8063e-15   4107.85 1 
  3954.91 3.5805e-15   4110.60 1 
  3957.56 5.1635e-15   4113.35 1 
  3960.21 6.0355e-15   4116.10 1 
  3962.85 3.4791e-15   4118.85 1 
  3965.50 2.1188e-15   4121.60 1 
  3968.14 2.9602e-15   4124.35 1 
  3970.79 3.6113e-15   4127.10 1 
  3973.44 4.1378e-15   4129.85 1 
  3976.08 4.5691e-15   4132.60 1 
  3978.73 4.7580e-15   4135.35 1 
  3981.37 6.3209e-15   4138.10 1 
  3984.02 5.9712e-15   4140.85 1 
  3986.67 5.3731e-15   4143.60 1 
  3989.31 6.6912e-15   4146.35 1 
  3991.96 6.5309e-15   4149.10 1 
  3994.60 5.7017e-15   4151.85 1 
  3997.25 5.4866e-15   4154.60 1 
  3999.89 5.1530e-15   4157.35 1 
  4002.54 6.3929e-15   4160.10 1 
  4005.19 6.6650e-15   4162.85 1 
  4007.83 4.6361e-15   4165.60 1 
  4010.48 5.5004e-15   4168.35 1 
  4013.12 6.1851e-15   4171.10 1 
  4015.77 5.4352e-15   4173.85 1 
  4018.42 5.8960e-15   4176.60 1 
  4021.06 6.5992e-15   4179.35 1 
  4023.71 5.4644e-15   4182.10 1 
  4026.35 5.0447e-15   4184.85 1 
  4029.00 5.0424e-15   4187.60 1 
  4031.64 5.2462e-15   4190.35 1 
  4034.29 5.7793e-15   4193.10 1 
  4036.94 6.0602e-15   4195.85 1 
  4039.58 6.0681e-15   4198.60 1 
  4042.23 5.4656e-15   4201.35 1 
  4044.87 5.9962e-15   4204.10 1 
  4047.52 5.7586e-15   4206.85 1 
  4050.17 5.6246e-15   4209.60 1 
  4052.81 5.2345e-15   4212.35 1 
  4055.46 5.5565e-15   4215.10 1 
  4058.10 4.9491e-15   4217.85 1 
  4060.75 4.6642e-15   4220.60 1 
  4063.39 5.3112e-15   4223.35 1 
  4066.04 4.5602e-15   4226.10 1 
  4068.69 5.8502e-15   4228.85 1 
  4071.33 5.4862e-15   4231.60 1 
  4073.98 5.1265e-15   4234.35 1 
  4076.62 5.4577e-15   4237.10 1 
