# An Atlas of Galaxy Spectral Energy Distributions from the Ultraviolet to the Mid-Infrared
# Brown et al. (2014)
# http://dx.doi.org/10.5072/03/529D3551F0117
# 
# Column 1 : Restframe Wavelength (Angstrom)
# Column 2 : Flux per unit wavelength (ergs/s/cm^2/Angstrom)
# Column 3 : Observed wavelength (Angstrom)
# Column 4 : Source (0 = model, 1 = Optical Spectrum, 2 = Akari, 3 = Spitzer IRS)
# 
   102.05 7.4284e-26    105.20 0 
   103.95 1.0639e-25    107.15 0 
   105.88 1.5520e-25    109.14 0 
   108.10 2.2956e-25    111.43 0 
   110.11 3.8010e-25    113.50 0 
   113.98 7.1762e-25    117.49 0 
   117.98 1.2528e-24    121.62 0 
   121.01 5.7929e-24    124.74 0 
   124.97 9.1811e-24    128.82 0 
   127.00 1.1115e-23    130.92 0 
   127.88 1.2442e-23    131.83 0 
   130.86 1.6214e-23    134.90 0 
   132.07 2.0272e-23    136.14 0 
   133.91 2.3817e-23    138.04 0 
   137.03 3.5229e-23    141.25 0 
   139.90 4.4350e-23    144.21 0 
   143.16 1.4155e-22    147.57 0 
   147.17 4.2943e-22    151.71 0 
   150.94 5.4814e-22    155.60 0 
   155.17 7.0129e-22    159.96 0 
   159.15 9.0135e-22    164.06 0 
   162.11 1.0713e-21    167.11 0 
   165.89 1.3580e-21    171.00 0 
   170.14 1.6668e-21    175.39 0 
   172.91 1.9539e-21    178.24 0 
   176.93 2.3708e-21    182.39 0 
   179.81 2.7220e-21    185.35 0 
   181.89 2.9847e-21    187.50 0 
   186.13 3.5637e-21    191.87 0 
   190.90 4.4045e-21    196.79 0 
   194.00 5.0222e-21    199.99 0 
   198.07 5.8600e-21    204.17 0 
   202.21 6.8532e-21    208.45 0 
   205.03 7.6541e-21    211.35 0 
   209.80 8.7477e-21    216.27 0 
   216.18 1.1217e-20    222.84 0 
   220.20 1.2850e-20    226.99 0 
   222.75 1.3992e-20    229.61 0 
   226.89 1.5955e-20    233.88 0 
   230.04 2.5876e-20    237.14 0 
   233.78 4.4045e-20    240.99 0 
   239.78 6.1503e-20    247.17 0 
   245.93 6.4699e-20    253.51 0 
   252.24 7.6894e-20    260.02 0 
   256.93 7.0452e-20    264.85 0 
   259.90 8.5683e-20    267.92 0 
   264.13 9.5917e-20    272.27 0 
   269.04 1.0373e-19    277.33 0 
   274.04 1.1115e-19    282.49 0 
   279.13 1.1910e-19    287.74 0 
   284.32 1.2791e-19    293.09 0 
   290.28 1.3210e-19    299.23 0 
   295.67 1.4451e-19    304.79 0 
   301.17 1.5132e-19    310.46 0 
   308.19 1.6630e-19    317.69 0 
   318.28 1.8919e-19    328.10 0 
   327.95 2.0936e-19    338.06 0 
   337.92 2.2798e-19    348.34 0 
   348.19 2.4654e-19    358.92 0 
   357.12 2.6540e-19    368.13 0 
   366.28 2.8900e-19    377.57 0 
   374.81 3.0612e-19    386.37 0 
   385.31 3.1470e-19    397.19 0 
   395.20 3.4825e-19    407.38 0 
   405.33 3.7488e-19    417.83 0 
   413.82 3.9075e-19    426.58 0 
   421.51 4.0077e-19    434.51 0 
   430.34 4.1295e-19    443.61 0 
   441.38 4.3944e-19    454.99 0 
   450.62 4.5488e-19    464.52 0 
   460.06 4.6440e-19    474.24 0 
   469.69 4.8183e-19    484.17 0 
   479.53 5.0454e-19    494.31 0 
   489.57 5.0804e-19    504.66 0 
   499.82 5.3690e-19    515.23 0 
   505.61 5.4437e-19    521.19 0 
   511.46 6.9967e-19    527.23 0 
   519.77 7.2426e-19    535.80 0 
   529.43 7.4971e-19    545.76 0 
   540.52 7.4113e-19    557.19 0 
   550.57 8.7881e-19    567.54 0 
   559.52 9.9976e-19    576.77 0 
   569.92 1.1140e-18    587.49 0 
   580.51 1.1038e-18    598.41 0 
   589.95 1.2969e-18    608.13 0 
   599.53 1.3517e-18    618.02 0 
   610.68 1.4959e-18    629.51 0 
   620.60 1.7616e-18    639.73 0 
   630.68 1.9182e-18    650.13 0 
   639.46 1.9719e-18    659.17 0 
   649.85 2.2433e-18    669.88 0 
   657.37 2.4260e-18    677.64 0 
   664.99 2.5816e-18    685.49 0 
   674.24 2.6357e-18    695.02 0 
   685.19 2.6479e-18    706.32 0 
   694.72 3.4506e-18    716.14 0 
   704.39 3.3566e-18    726.11 0 
   715.83 4.0541e-18    737.90 0 
   725.79 4.2845e-18    748.17 0 
   734.20 4.5175e-18    756.83 0 
   744.41 5.1987e-18    767.36 0 
   754.77 5.6610e-18    778.04 0 
   765.27 6.0519e-18    788.86 0 
   774.13 6.7437e-18    797.99 0 
   784.90 7.3773e-18    809.10 0 
   795.82 7.8144e-18    820.35 0 
   805.03 8.2774e-18    829.85 0 
   814.35 8.7075e-18    839.46 0 
   825.68 9.7251e-18    851.14 0 
   835.24 7.9414e-18    860.99 0 
   844.91 1.0493e-17    870.96 0 
   854.70 1.0937e-17    881.05 0 
   864.59 1.1992e-17    891.25 0 
   874.61 1.3089e-17    901.57 0 
   884.73 1.4518e-17    912.01 0 
   894.98 1.5556e-17    922.57 0 
   905.34 1.5592e-17    933.25 0 
   915.82 2.5757e-17    944.06 0 
   924.30 1.9856e-16    952.80 0 
   935.00 4.4555e-16    963.83 0 
   945.83 8.7075e-16    974.99 0 
   954.58 1.2791e-15    984.01 0 
   965.63 1.3896e-15    995.41 0 
   974.57 1.9948e-16   1004.62 0 
   985.85 1.0837e-15   1016.25 0 
   994.98 1.2385e-15   1025.65 0 
  1004.18 1.9719e-15   1035.14 0 
  1015.81 1.9629e-15   1047.13 0 
  1025.21 8.6476e-16   1056.82 0 
  1034.70 1.3179e-15   1066.60 0 
  1044.27 2.7472e-15   1076.47 0 
  1053.93 2.7158e-15   1086.43 0 
  1066.14 2.0601e-15   1099.01 0 
  1076.00 2.5521e-15   1109.18 0 
  1085.96 1.9404e-15   1119.44 0 
  1096.00 2.7663e-15   1129.80 0 
  1106.15 2.6724e-15   1140.25 0 
  1113.81 2.5462e-15   1148.15 0 
  1124.12 2.2693e-15   1158.78 0 
  1134.52 3.0683e-15   1169.50 0 
  1145.02 2.7727e-15   1180.32 0 
  1155.61 3.0262e-15   1191.24 0 
  1166.31 3.1397e-15   1202.26 0 
  1174.39 2.0696e-15   1210.60 0 
  1185.26 3.0895e-15   1221.80 0 
  1196.22 1.9902e-15   1233.11 0 
  1204.52 1.3517e-15   1241.65 0 
  1215.66 1.0137e-15   1253.14 0 
  1224.09 2.1374e-15   1261.83 0 
  1235.41 3.4268e-15   1273.50 0 
  1243.98 3.8097e-15   1282.33 0 
  1255.49 3.6049e-15   1294.20 0 
  1264.19 3.0402e-15   1303.17 0 
  1275.89 4.1390e-15   1315.22 0 
  1284.73 4.4045e-15   1324.34 0 
  1293.64 3.3029e-15   1333.52 0 
  1305.61 3.2726e-15   1345.86 0 
  1314.66 4.3341e-15   1355.19 0 
  1323.77 4.1390e-15   1364.58 0 
  1336.02 3.5719e-15   1377.21 0 
  1345.28 4.4761e-15   1386.76 0 
  1354.60 4.3441e-15   1396.37 0 
  1363.99 3.8097e-15   1406.05 0 
  1373.45 4.0822e-15   1415.79 0 
  1386.16 4.1485e-15   1428.89 0 
  1395.77 3.5884e-15   1438.80 0 
  1405.44 3.7661e-15   1448.77 0 
  1415.18 3.8361e-15   1458.81 0 
  1424.99 4.0169e-15   1468.93 0 
  1434.87 3.9893e-15   1479.11 0 
  1441.49 4.2648e-15   1485.94 0 
  1448.15 4.3742e-15   1492.79 0 
  1454.83 4.2354e-15   1499.69 0 
  1464.92 3.8627e-15   1510.08 0 
  1475.07 3.8895e-15   1520.55 0 
  1485.29 4.0077e-15   1531.09 0 
  1495.59 4.1200e-15   1541.70 0 
  1505.96 3.8716e-15   1552.39 0 
  1512.91 3.3798e-15   1559.55 0 
  1516.40 3.6889e-15   1563.15 0 
  1523.40 3.5555e-15   1570.36 0 
  1533.95 3.0402e-15   1581.25 0 
  1544.59 3.4506e-15   1592.21 0 
  1555.29 3.2576e-15   1603.25 0 
  1566.07 3.3105e-15   1614.36 0 
  1573.30 3.5719e-15   1621.81 0 
  1584.21 3.8010e-15   1633.05 0 
  1595.19 3.8985e-15   1644.37 0 
  1606.25 3.8450e-15   1655.77 0 
  1613.66 3.8895e-15   1663.41 0 
  1624.85 3.6551e-15   1674.94 0 
  1636.11 3.9436e-15   1686.55 0 
  1643.66 4.0262e-15   1694.34 0 
  1655.06 3.6889e-15   1706.08 0 
  1666.53 4.1011e-15   1717.91 0 
  1670.37 3.5801e-15   1721.87 0 
  1678.08 4.1295e-15   1729.82 0 
  1685.83 4.3742e-15   1737.80 0 
  1693.61 4.0822e-15   1745.82 0 
  1705.35 3.9075e-15   1757.92 0 
  1713.22 3.6804e-15   1766.04 0 
  1725.09 3.6719e-15   1778.28 0 
  1733.06 3.9710e-15   1786.49 0 
  1745.07 3.8806e-15   1798.87 0 
  1753.12 4.1966e-15   1807.17 0 
  1765.28 3.8097e-15   1819.70 0 
  1773.42 3.9255e-15   1828.10 0 
  1785.72 4.0169e-15   1840.77 0 
  1793.96 4.3541e-15   1849.27 0 
  1806.39 4.3341e-15   1862.09 0 
  1814.73 3.9527e-15   1870.68 0 
  1823.11 4.0728e-15   1879.32 0 
  1835.75 3.8895e-15   1892.34 0 
  1844.22 3.5555e-15   1901.08 0 
  1857.00 3.5637e-15   1914.26 0 
  1865.57 3.7059e-15   1923.09 0 
  1874.19 4.0822e-15   1931.97 0 
  1882.84 3.7316e-15   1940.89 0 
  1895.89 3.5801e-15   1954.34 0 
  1904.64 3.8273e-15   1963.36 0 
  1913.43 3.6719e-15   1972.42 0 
  1926.69 3.6132e-15   1986.10 0 
  1935.59 3.7402e-15   1995.26 0 
  1944.52 3.9255e-15   2004.47 0 
  1953.50 3.6635e-15   2013.72 0 
  1967.04 4.0728e-15   2027.68 0 
  1976.12 4.2063e-15   2037.04 0 
  1985.24 3.9618e-15   2046.45 0 
  1994.40 3.8450e-15   2055.89 0 
  2003.61 3.9801e-15   2065.38 0 
  2012.85 3.8273e-15   2074.91 0 
  2026.81 4.0448e-15   2089.30 0 
  2036.16 3.8097e-15   2098.94 0 
  2045.56 3.9985e-15   2108.63 0 
  2055.00 3.8185e-15   2118.36 0 
  2064.49 3.8361e-15   2128.14 0 
  2074.02 4.1390e-15   2137.96 0 
  2078.80 3.9255e-15   2142.89 0 
  2083.59 4.0916e-15   2147.83 0 
  2093.21 3.8627e-15   2157.74 0 
  2102.87 3.8895e-15   2167.70 0 
  2112.58 3.9345e-15   2177.71 0 
  2127.22 4.0077e-15   2192.81 0 
  2137.04 3.6974e-15   2202.93 0 
  2146.90 3.8097e-15   2213.09 0 
  2156.81 3.9801e-15   2223.31 0 
  2166.77 3.8539e-15   2233.57 0 
  2176.77 3.8273e-15   2243.88 0 
  2186.82 3.7575e-15   2254.24 0 
  2196.91 3.9527e-15   2264.64 0 
  2207.05 3.8450e-15   2275.10 0 
  2217.24 3.6467e-15   2285.60 0 
  2227.47 3.5148e-15   2296.15 0 
  2232.61 3.7925e-15   2301.44 0 
  2242.91 3.6150e-15   2312.07 0 
  2253.27 3.4538e-15   2322.74 0 
  2263.67 3.5604e-15   2333.46 0 
  2274.12 3.6702e-15   2344.23 0 
  2284.61 3.7747e-15   2355.05 0 
  2295.16 3.5651e-15   2365.92 0 
  2305.75 3.5585e-15   2376.84 0 
  2316.39 3.3843e-15   2387.81 0 
  2327.09 2.5862e-15   2398.83 0 
  2332.45 3.1316e-15   2404.36 0 
  2343.22 3.0406e-15   2415.46 0 
  2354.03 3.3125e-15   2426.61 0 
  2364.90 3.0294e-15   2437.81 0 
  2375.81 3.1301e-15   2449.06 0 
  2386.78 2.9024e-15   2460.37 0 
  2392.28 3.1179e-15   2466.04 0 
  2403.33 2.9789e-15   2477.42 0 
  2414.42 3.0709e-15   2488.86 0 
  2425.56 3.2694e-15   2500.35 0 
  2436.76 3.1309e-15   2511.89 0 
  2442.38 3.3326e-15   2517.68 0 
  2453.65 3.2808e-15   2529.30 0 
  2464.98 3.2673e-15   2540.97 0 
  2476.35 3.1434e-15   2552.70 0 
  2487.78 3.2479e-15   2564.48 0 
  2493.52 3.0529e-15   2570.40 0 
  2505.03 3.4113e-15   2582.26 0 
  2510.80 3.0341e-15   2588.21 0 
  2516.59 3.1343e-15   2594.18 0 
  2522.39 2.9870e-15   2600.16 0 
  2534.03 3.0301e-15   2612.16 0 
  2545.73 2.9694e-15   2624.22 0 
  2557.48 3.1980e-15   2636.33 0 
  2563.38 3.1188e-15   2642.41 0 
  2575.21 3.3129e-15   2654.61 0 
  2587.10 3.2766e-15   2666.86 0 
  2593.06 3.2324e-15   2673.01 0 
  2605.03 3.1171e-15   2685.34 0 
  2617.05 3.0758e-15   2697.74 0 
  2623.09 3.2290e-15   2703.96 0 
  2635.19 3.3212e-15   2716.44 0 
  2647.36 3.6018e-15   2728.98 0 
  2653.46 3.6528e-15   2735.27 0 
  2665.71 3.3178e-15   2747.89 0 
  2678.01 3.4839e-15   2760.58 0 
  2684.19 3.4609e-15   2766.94 0 
  2696.58 3.3221e-15   2779.71 0 
  2702.79 3.4160e-15   2786.12 0 
  2715.27 3.2490e-15   2798.98 0 
  2727.80 3.2582e-15   2811.90 0 
  2734.09 3.4284e-15   2818.38 0 
  2746.71 2.9738e-15   2831.39 0 
  2753.04 3.0369e-15   2837.92 0 
  2765.75 3.1453e-15   2851.02 0 
  2772.12 3.3020e-15   2857.59 0 
  2784.92 3.1405e-15   2870.78 0 
  2797.77 2.5424e-15   2884.03 0 
  2804.22 2.7375e-15   2890.68 0 
  2817.17 3.2854e-15   2904.02 0 
  2823.66 3.4332e-15   2910.72 0 
  2836.69 3.2956e-15   2924.15 0 
  2843.23 3.2289e-15   2930.89 0 
  2856.36 3.1354e-15   2944.42 0 
  2862.94 3.4152e-15   2951.21 0 
  2876.16 3.3857e-15   2964.83 0 
  2882.79 3.3866e-15   2971.67 0 
  2896.09 3.3497e-15   2985.38 0 
  2909.46 3.6162e-15   2999.16 0 
  2929.63 3.4883e-15   3019.95 0 
  2949.94 3.4433e-15   3040.89 0 
  2970.38 3.5103e-15   3061.96 0 
  2990.97 3.5132e-15   3083.19 0 
  3011.71 3.5652e-15   3104.56 0 
  3032.58 3.5518e-15   3126.08 0 
  3046.58 3.5457e-15   3140.51 0 
  3067.70 3.5570e-15   3162.28 0 
  3088.96 3.5847e-15   3184.20 0 
  3110.37 3.5550e-15   3206.27 0 
  3131.93 3.5174e-15   3228.49 0 
  3146.39 3.5439e-15   3243.40 0 
  3168.20 3.5308e-15   3265.88 0 
  3190.16 3.3749e-15   3288.52 0 
  3212.27 3.4806e-15   3311.31 0 
  3227.10 3.3567e-15   3326.60 0 
  3249.47 3.5019e-15   3349.66 0 
  3272.00 3.5951e-15   3372.87 0 
  3287.10 3.5725e-15   3388.44 0 
  3309.88 3.5758e-15   3411.93 0 
  3325.16 3.5781e-15   3427.68 0 
  3332.83 3.5874e-15   3435.58 0 
  3340.51 3.4191e-15   3443.50 0 
  3348.21 3.6902e-15   3451.44 0 
  3355.93 3.5579e-15   3459.39 0 
  3363.66 3.3291e-15   3467.37 0 
  3371.42 3.3072e-15   3475.36 0 
  3379.19 3.5694e-15   3483.37 0 
  3386.98 3.6202e-15   3491.40 0 
  3394.79 3.5799e-15   3499.45 0 
  3402.61 3.7240e-15   3507.52 0 
  3410.46 3.4368e-15   3515.60 0 
  3418.32 3.4937e-15   3523.71 0 
  3426.20 3.5762e-15   3531.83 0 
  3434.10 3.6946e-15   3539.97 0 
  3442.01 3.4971e-15   3548.13 0 
  3449.95 3.5063e-15   3556.31 0 
  3457.90 3.4593e-15   3564.51 0 
  3465.87 3.3894e-15   3572.73 0 
  3473.86 3.5831e-15   3580.96 0 
  3481.87 3.4547e-15   3589.22 0 
  3489.90 3.5855e-15   3597.49 0 
  3497.94 3.4649e-15   3605.79 0 
  3506.01 3.5467e-15   3614.10 0 
  3514.09 3.4274e-15   3622.43 0 
  3522.19 3.5901e-15   3630.78 0 
  3530.31 3.4614e-15   3639.15 0 
  3538.45 3.6008e-15   3647.54 0 
  3546.60 3.6689e-15   3655.95 0 
  3554.78 3.6956e-15   3664.37 0 
  3562.97 3.6293e-15   3672.82 0 
  3568.73 2.7154e-15   3678.76 1 
  3571.40 2.2384e-15   3681.51 1 
  3574.07 3.6356e-15   3684.26 1 
  3576.74 5.3986e-15   3687.01 1 
  3579.40 3.6987e-15   3689.76 1 
  3582.07 9.3434e-16   3692.51 1 
  3584.74 -4.1760e-17   3695.26 1 
  3587.41 2.3476e-15   3698.01 1 
  3590.07 2.1122e-15   3700.76 1 
  3592.74 6.7286e-15   3703.51 1 
  3595.41 6.7186e-15   3706.26 1 
  3598.08 4.5273e-15   3709.01 1 
  3600.75 1.3360e-15   3711.76 1 
  3603.41 8.0513e-16   3714.51 1 
  3606.08 2.1866e-15   3717.26 1 
  3608.75 3.1276e-15   3720.01 1 
  3611.42 5.4890e-15   3722.76 1 
  3614.08 1.0372e-15   3725.51 1 
  3616.75 1.8008e-15   3728.26 1 
  3619.42 1.0570e-15   3731.01 1 
  3622.09 1.8296e-15   3733.76 1 
  3624.76 2.6596e-15   3736.51 1 
  3627.42 -5.4155e-16   3739.26 1 
  3630.09 3.2323e-15   3742.01 1 
  3632.76 1.3759e-15   3744.76 1 
  3635.43 -2.1221e-16   3747.51 1 
  3638.09 -1.1152e-15   3750.26 1 
  3640.76 4.3861e-15   3753.01 1 
  3643.43 6.6829e-15   3755.76 1 
  3646.10 3.1255e-15   3758.51 1 
  3648.76 1.9431e-15   3761.26 1 
  3651.43 1.3930e-15   3764.01 1 
  3654.10 3.3410e-15   3766.76 1 
  3656.77 5.4745e-15   3769.51 1 
  3659.44 4.6677e-15   3772.26 1 
  3662.10 3.8630e-15   3775.01 1 
  3664.77 1.6064e-15   3777.76 1 
  3667.44 6.0082e-15   3780.51 1 
  3670.11 5.4004e-15   3783.26 1 
  3672.77 2.8503e-15   3786.01 1 
  3675.44 4.0227e-15   3788.76 1 
  3678.11 5.3449e-15   3791.51 1 
  3680.78 5.9037e-15   3794.26 1 
  3683.45 1.4357e-15   3797.01 1 
  3686.11 3.8738e-15   3799.76 1 
  3688.78 3.1810e-15   3802.51 1 
  3691.45 2.4021e-15   3805.26 1 
  3694.12 4.2510e-15   3808.01 1 
  3696.78 5.2929e-15   3810.76 1 
  3699.45 2.2235e-15   3813.51 1 
  3702.12 3.1363e-15   3816.26 1 
  3704.79 2.7906e-15   3819.01 1 
  3707.46 2.5730e-15   3821.76 1 
  3710.12 3.2612e-15   3824.51 1 
  3712.79 4.2831e-15   3827.26 1 
  3715.46 5.0647e-15   3830.01 1 
  3718.13 2.3503e-15   3832.76 1 
  3720.79 4.1279e-15   3835.51 1 
  3723.46 6.6577e-15   3838.26 1 
  3726.13 7.5123e-15   3841.01 1 
  3728.80 1.0993e-14   3843.76 1 
  3731.47 9.5878e-15   3846.51 1 
  3734.13 8.2385e-15   3849.26 1 
  3736.80 4.7298e-15   3852.01 1 
  3739.47 3.4229e-15   3854.76 1 
  3742.14 3.7426e-15   3857.51 1 
  3744.80 3.9825e-15   3860.26 1 
  3747.47 5.2258e-15   3863.01 1 
  3750.14 5.1893e-15   3865.76 1 
  3752.81 3.8549e-15   3868.51 1 
  3755.47 2.9252e-15   3871.26 1 
  3758.14 5.0023e-15   3874.01 1 
  3760.81 5.5257e-15   3876.76 1 
  3763.48 4.8512e-15   3879.51 1 
  3766.15 5.1313e-15   3882.26 1 
  3768.81 3.5289e-15   3885.01 1 
  3771.48 2.4186e-15   3887.76 1 
  3774.15 4.0998e-15   3890.51 1 
  3776.82 5.0014e-15   3893.26 1 
  3779.48 3.4231e-15   3896.01 1 
  3782.15 4.7669e-15   3898.76 1 
  3784.82 5.5379e-15   3901.51 1 
  3787.49 4.6836e-15   3904.26 1 
  3790.16 3.8128e-15   3907.01 1 
  3792.82 1.1178e-15   3909.76 1 
  3795.49 3.8407e-15   3912.51 1 
  3798.16 5.7032e-15   3915.26 1 
  3800.83 2.8058e-15   3918.01 1 
  3803.49 2.1510e-15   3920.76 1 
  3806.16 4.9347e-15   3923.51 1 
  3808.83 5.5028e-15   3926.26 1 
  3811.50 5.8247e-15   3929.01 1 
  3814.17 6.0950e-15   3931.76 1 
  3816.83 5.1465e-15   3934.51 1 
  3819.50 5.9229e-15   3937.26 1 
  3822.17 6.6668e-15   3940.01 1 
  3824.84 2.9236e-15   3942.76 1 
  3827.50 4.0657e-15   3945.51 1 
  3830.17 3.8649e-15   3948.26 1 
  3832.84 4.5192e-15   3951.01 1 
  3835.51 3.6047e-15   3953.76 1 
  3838.18 3.1937e-15   3956.51 1 
  3840.84 4.6068e-15   3959.26 1 
  3843.51 5.5800e-15   3962.01 1 
  3846.18 2.1000e-15   3964.76 1 
  3848.85 4.0405e-15   3967.51 1 
  3851.51 6.2870e-15   3970.26 1 
  3854.18 7.1678e-15   3973.01 1 
  3856.85 5.9563e-15   3975.76 1 
  3859.52 4.2992e-15   3978.51 1 
  3862.18 5.7640e-15   3981.26 1 
  3864.85 4.7471e-15   3984.01 1 
  3867.52 7.1690e-15   3986.76 1 
  3870.19 6.8598e-15   3989.51 1 
  3872.86 6.4368e-15   3992.26 1 
  3875.52 6.6233e-15   3995.01 1 
  3878.19 4.4975e-15   3997.76 1 
  3880.86 6.6741e-15   4000.51 1 
  3883.53 6.1092e-15   4003.26 1 
  3886.19 6.1422e-15   4006.01 1 
  3888.86 4.1436e-15   4008.76 1 
  3891.53 1.7764e-15   4011.51 1 
  3894.20 1.5488e-15   4014.26 1 
  3896.87 6.1223e-15   4017.01 1 
  3899.53 5.3062e-15   4019.76 1 
  3902.20 5.7426e-15   4022.51 1 
  3904.87 2.7016e-15   4025.26 1 
  3907.54 4.7348e-15   4028.01 1 
  3910.20 5.0878e-15   4030.76 1 
  3912.87 7.4875e-15   4033.51 1 
  3915.54 6.6676e-15   4036.26 1 
  3918.21 6.4257e-15   4039.01 1 
  3920.88 6.0412e-15   4041.76 1 
  3923.54 5.5097e-15   4044.51 1 
  3926.21 6.9024e-15   4047.26 1 
  3928.88 7.6341e-15   4050.01 1 
  3931.55 3.9330e-15   4052.76 1 
  3934.21 2.6571e-15   4055.51 1 
  3936.88 6.1049e-15   4058.26 1 
  3939.55 2.9699e-15   4061.01 1 
  3942.22 3.9749e-15   4063.76 1 
  3944.89 4.5426e-15   4066.51 1 
  3947.55 4.3875e-15   4069.26 1 
  3950.22 6.8219e-15   4072.01 1 
  3952.89 6.2283e-15   4074.76 1 
  3955.56 6.6439e-15   4077.51 1 
  3958.22 4.6357e-15   4080.26 1 
  3960.89 6.6035e-15   4083.01 1 
  3963.56 6.4406e-15   4085.76 1 
  3966.23 4.4243e-15   4088.51 1 
  3968.90 4.9452e-15   4091.26 1 
  3971.56 2.4346e-15   4094.01 1 
  3974.23 3.6545e-15   4096.76 1 
  3976.90 3.7568e-15   4099.51 1 
  3979.57 3.1811e-15   4102.26 1 
  3982.23 6.1939e-15   4105.01 1 
  3984.90 5.8807e-15   4107.76 1 
  3987.57 4.5723e-15   4110.51 1 
  3990.24 5.0885e-15   4113.26 1 
  3992.90 6.6191e-15   4116.01 1 
  3995.57 6.1831e-15   4118.76 1 
  3998.24 9.7204e-15   4121.51 1 
  4000.91 5.8367e-15   4124.26 1 
  4003.58 5.6006e-15   4127.01 1 
  4006.24 5.6177e-15   4129.76 1 
  4008.91 6.2855e-15   4132.51 1 
  4011.58 5.6202e-15   4135.26 1 
  4014.25 7.8866e-15   4138.01 1 
  4016.91 7.3011e-15   4140.76 1 
  4019.58 6.1104e-15   4143.51 1 
  4022.25 7.4208e-15   4146.26 1 
  4024.92 7.7879e-15   4149.01 1 
  4027.59 6.1795e-15   4151.76 1 
  4030.25 5.3436e-15   4154.51 1 
  4032.92 5.8779e-15   4157.26 1 
  4035.59 7.4167e-15   4160.01 1 
  4038.26 6.3510e-15   4162.76 1 
  4040.92 6.1506e-15   4165.51 1 
  4043.59 7.0915e-15   4168.26 1 
  4046.26 6.6075e-15   4171.01 1 
  4048.93 6.2732e-15   4173.76 1 
  4051.60 5.9272e-15   4176.51 1 
  4054.26 3.9529e-15   4179.26 1 
  4056.93 4.4507e-15   4182.01 1 
  4059.60 6.6280e-15   4184.76 1 
  4062.27 6.9221e-15   4187.51 1 
  4064.93 7.0708e-15   4190.26 1 
  4067.60 8.6907e-15   4193.01 1 
  4070.27 5.7980e-15   4195.76 1 
  4072.94 5.1789e-15   4198.51 1 
  4075.60 4.6058e-15   4201.26 1 
  4078.27 6.3915e-15   4204.01 1 
  4080.94 7.2583e-15   4206.76 1 
  4083.61 5.9235e-15   4209.51 1 
  4086.28 5.7999e-15   4212.26 1 
  4088.94 7.0582e-15   4215.01 1 
  4091.61 5.8782e-15   4217.76 1 
  4094.28 5.8437e-15   4220.51 1 
  4096.95 6.3273e-15   4223.26 1 
  4099.61 6.2013e-15   4226.01 1 
  4102.28 5.4502e-15   4228.76 1 
  4104.95 4.9671e-15   4231.51 1 
  4107.62 4.1973e-15   4234.26 1 
