# An Atlas of Galaxy Spectral Energy Distributions from the Ultraviolet to the Mid-Infrared
# Brown et al. (2014)
# http://dx.doi.org/10.5072/03/529D3551F0117
# 
# Column 1 : Restframe Wavelength (Angstrom)
# Column 2 : Flux per unit wavelength (ergs/s/cm^2/Angstrom)
# Column 3 : Observed wavelength (Angstrom)
# Column 4 : Source (0 = model, 1 = Optical Spectrum, 2 = Akari, 3 = Spitzer IRS)
# 
   100.01 1.4783e-18    100.46 0 
   102.10 1.8104e-18    102.57 0 
   104.00 2.0406e-18    104.47 0 
   105.94 2.3865e-18    106.41 0 
   107.90 2.8104e-18    108.39 0 
   109.91 4.0623e-18    110.41 0 
   114.04 5.2453e-18    114.55 0 
   118.04 6.4531e-18    118.58 0 
   121.07 1.7489e-17    121.62 0 
   125.04 2.1417e-17    125.60 0 
   127.07 2.3376e-17    127.64 0 
   127.95 2.4591e-17    128.53 0 
   130.93 2.7718e-17    131.52 0 
   132.14 3.1244e-17    132.74 0 
   133.98 3.3633e-17    134.59 0 
   137.10 4.0529e-17    137.72 0 
   139.97 4.5161e-17    140.60 0 
   142.90 8.1615e-17    143.55 0 
   146.91 1.4150e-16    147.57 0 
   151.02 1.5914e-16    151.71 0 
   154.90 1.7979e-16    155.60 0 
   158.87 2.0313e-16    159.59 0 
   161.82 2.2170e-16    162.55 0 
   165.97 2.4875e-16    166.72 0 
   169.84 2.7464e-16    170.61 0 
   173.00 2.9769e-16    173.78 0 
   177.03 3.2717e-16    177.83 0 
   179.90 3.5056e-16    180.72 0 
   181.99 3.6709e-16    182.81 0 
   185.80 4.0065e-16    186.64 0 
   191.00 4.4439e-16    191.87 0 
   194.11 4.7399e-16    194.98 0 
   198.17 5.1141e-16    199.07 0 
   201.86 5.5178e-16    202.77 0 
   205.14 5.8313e-16    206.06 0 
   209.91 6.1627e-16    210.86 0 
   215.79 7.0270e-16    216.77 0 
   219.81 7.5295e-16    220.80 0 
   222.86 7.8301e-16    223.87 0 
   227.01 8.3516e-16    228.03 0 
   230.17 1.2699e-15    231.21 0 
   233.91 2.1368e-15    234.96 0 
   239.91 2.8891e-15    240.99 0 
   246.06 2.8429e-15    247.17 0 
   251.79 3.1029e-15    252.93 0 
   257.06 2.5455e-15    258.23 0 
   260.04 3.1244e-15    261.22 0 
   264.27 3.3711e-15    265.46 0 
   269.18 3.4417e-15    270.40 0 
   274.18 3.4976e-15    275.42 0 
   279.28 3.5218e-15    280.54 0 
   283.82 3.6122e-15    285.10 0 
   289.76 3.5218e-15    291.07 0 
   295.83 3.6122e-15    297.17 0 
   301.33 3.4815e-15    302.69 0 
   308.35 3.6288e-15    309.74 0 
   317.72 3.8262e-15    319.15 0 
   328.13 3.8884e-15    329.61 0 
   338.10 3.8973e-15    339.63 0 
   348.37 3.8973e-15    349.95 0 
   357.31 3.9607e-15    358.92 0 
   365.63 4.0810e-15    367.28 0 
   375.01 4.0716e-15    376.70 0 
   384.63 3.9063e-15    386.37 0 
   395.40 4.0810e-15    397.19 0 
   404.61 4.1569e-15    406.44 0 
   414.04 4.1283e-15    415.91 0 
   421.74 4.0529e-15    423.64 0 
   429.58 3.9973e-15    431.52 0 
   440.60 4.0436e-15    442.59 0 
   450.86 3.9973e-15    452.90 0 
   460.30 3.9063e-15    462.38 0 
   469.94 3.8705e-15    472.06 0 
   479.78 3.8794e-15    481.95 0 
   489.82 3.7477e-15    492.04 0 
   500.08 3.8086e-15    502.34 0 
   505.87 3.7134e-15    508.16 0 
   511.73 3.9789e-15    514.04 0 
   520.04 3.9063e-15    522.40 0 
   529.71 3.7911e-15    532.11 0 
   539.56 3.5873e-15    542.00 0 
   549.59 3.5056e-15    552.08 0 
   559.81 3.6456e-15    562.34 0 
   570.22 3.6793e-15    572.80 0 
   579.48 3.5956e-15    582.10 0 
   590.26 3.5626e-15    592.93 0 
   599.85 3.3944e-15    602.56 0 
   609.59 3.0183e-15    612.35 0 
   619.50 3.4258e-15    622.30 0 
   629.56 3.3172e-15    632.41 0 
   639.79 3.3556e-15    642.69 0 
   650.19 3.2641e-15    653.13 0 
   657.72 3.1606e-15    660.69 0 
   665.33 3.2194e-15    668.34 0 
   674.59 3.2119e-15    677.64 0 
   685.55 3.0323e-15    688.65 0 
   695.09 3.1029e-15    698.23 0 
   704.76 2.8958e-15    707.95 0 
   716.21 3.0253e-15    719.45 0 
   726.17 2.9907e-15    729.46 0 
   734.58 2.9564e-15    737.90 0 
   744.80 2.8825e-15    748.17 0 
   755.16 2.8299e-15    758.58 0 
   765.67 2.5749e-15    769.13 0 
   774.53 2.7464e-15    778.04 0 
   785.31 2.6228e-15    788.86 0 
   794.40 2.6471e-15    797.99 0 
   805.45 2.6349e-15    809.10 0 
   814.78 2.5988e-15    818.46 0 
   824.21 2.5749e-15    827.94 0 
   835.68 2.3484e-15    839.46 0 
   845.36 2.4875e-15    849.18 0 
   855.15 2.4365e-15    859.01 0 
   865.05 2.4253e-15    868.96 0 
   875.06 2.3976e-15    879.02 0 
   885.20 2.3592e-15    889.20 0 
   895.45 2.3322e-15    899.50 0 
   905.82 2.2791e-15    909.91 0 
   914.20 2.2739e-15    918.33 0 
   924.78 3.7134e-15    928.97 0 
   935.49 5.1733e-15    939.72 0 
   944.15 6.4531e-15    948.42 0 
   955.08 7.1083e-15    959.40 0 
   963.92 7.5992e-15    968.28 0 
   975.08 4.3030e-15    979.49 0 
   984.10 6.6339e-15    988.55 0 
   995.50 6.3646e-15   1000.00 0 
  1004.71 7.2238e-15   1009.25 0 
  1014.00 7.2572e-15   1018.59 0 
  1025.75 4.9519e-15   1030.39 0 
  1035.24 6.5278e-15   1039.92 0 
  1044.82 8.0310e-15   1049.54 0 
  1054.48 7.7941e-15   1059.25 0 
  1064.24 6.9465e-15   1069.05 0 
  1074.09 7.3751e-15   1078.95 0 
  1084.03 6.2772e-15   1088.93 0 
  1094.06 7.4262e-15   1099.01 0 
  1104.18 7.1083e-15   1109.18 0 
  1114.40 6.9625e-15   1119.44 0 
  1124.71 6.3499e-15   1129.80 0 
  1135.12 7.0757e-15   1140.25 0 
  1145.62 6.7728e-15   1150.80 0 
  1156.22 6.7728e-15   1161.45 0 
  1164.23 6.7107e-15   1169.50 0 
  1175.01 5.2212e-15   1180.32 0 
  1185.88 6.4383e-15   1191.24 0 
  1194.10 5.7117e-15   1199.50 0 
  1205.15 5.0092e-15   1210.60 0 
  1216.30 3.7391e-15   1221.80 0 
  1224.73 5.5561e-15   1230.27 0 
  1236.06 6.2484e-15   1241.65 0 
  1244.63 6.3646e-15   1250.26 0 
  1256.15 6.2054e-15   1261.83 0 
  1264.85 5.9947e-15   1270.57 0 
  1273.62 6.3939e-15   1279.38 0 
  1285.41 6.4087e-15   1291.22 0 
  1294.32 5.6986e-15   1300.17 0 
  1306.29 5.7117e-15   1312.20 0 
  1315.35 6.2340e-15   1321.30 0 
  1324.46 5.9947e-15   1330.45 0 
  1333.64 5.6204e-15   1339.68 0 
  1345.98 6.0085e-15   1352.07 0 
  1355.31 5.8718e-15   1361.44 0 
  1364.71 5.5178e-15   1370.88 0 
  1374.17 5.5051e-15   1380.38 0 
  1383.69 5.4798e-15   1389.95 0 
  1396.50 4.5790e-15   1402.81 0 
  1406.18 4.5058e-15   1412.54 0 
  1415.92 5.1733e-15   1422.33 0 
  1425.74 5.0555e-15   1432.19 0 
  1435.62 5.1495e-15   1442.12 0 
  1442.25 5.1972e-15   1448.77 0 
  1445.57 5.1733e-15   1452.11 0 
  1455.59 5.0439e-15   1462.18 0 
  1465.68 4.8280e-15   1472.31 0 
  1475.84 4.8169e-15   1482.52 0 
  1486.07 4.8280e-15   1492.79 0 
  1496.37 4.7618e-15   1503.14 0 
  1503.28 4.5790e-15   1510.08 0 
  1513.70 4.2832e-15   1520.55 0 
  1517.19 4.3931e-15   1524.05 0 
  1524.19 4.3628e-15   1531.09 0 
  1534.76 3.9334e-15   1541.70 0 
  1545.40 3.7477e-15   1552.39 0 
  1556.11 3.6878e-15   1563.15 0 
  1563.29 3.9063e-15   1570.36 0 
  1574.13 4.0623e-15   1581.25 0 
  1585.04 4.0999e-15   1592.21 0 
  1596.03 4.1093e-15   1603.25 0 
  1603.39 3.9973e-15   1610.65 0 
  1614.51 3.9516e-15   1621.81 0 
  1625.70 3.8705e-15   1633.05 0 
  1633.20 3.9789e-15   1640.59 0 
  1644.52 3.9516e-15   1651.96 0 
  1655.92 3.8616e-15   1663.41 0 
  1663.57 3.9698e-15   1671.09 0 
  1671.24 3.7219e-15   1678.80 0 
  1675.10 4.0343e-15   1682.67 0 
  1686.71 4.0250e-15   1694.34 0 
  1694.49 3.8705e-15   1702.16 0 
  1706.24 3.7737e-15   1713.96 0 
  1714.12 3.6288e-15   1721.87 0 
  1726.00 3.5956e-15   1733.80 0 
  1733.96 3.7477e-15   1741.81 0 
  1745.98 3.6793e-15   1753.88 0 
  1754.04 3.7911e-15   1761.98 0 
  1766.20 3.6122e-15   1774.19 0 
  1774.35 3.5956e-15   1782.38 0 
  1786.65 3.6624e-15   1794.73 0 
  1794.90 3.7999e-15   1803.02 0 
  1803.18 3.7911e-15   1811.34 0 
  1815.68 3.5544e-15   1823.90 0 
  1824.06 3.6288e-15   1832.31 0 
  1836.71 3.5544e-15   1845.02 0 
  1845.19 3.2491e-15   1853.53 0 
  1853.70 3.3402e-15   1862.09 0 
  1866.55 3.4976e-15   1874.99 0 
  1875.17 3.6122e-15   1883.65 0 
  1883.82 3.4180e-15   1892.34 0 
  1896.88 3.4180e-15   1905.46 0 
  1905.64 3.5299e-15   1914.26 0 
  1914.43 3.4655e-15   1923.09 0 
  1923.27 3.2717e-15   1931.97 0 
  1936.60 3.1244e-15   1945.36 0 
  1945.54 3.6205e-15   1954.34 0 
  1954.52 3.4735e-15   1963.36 0 
  1968.07 3.8350e-15   1976.97 0 
  1977.15 3.7564e-15   1986.10 0 
  1986.28 3.8086e-15   1995.26 0 
  1995.45 3.8174e-15   2004.47 0 
  2004.66 3.7999e-15   2013.72 0 
  2013.91 3.8439e-15   2023.02 0 
  2023.21 3.6205e-15   2032.36 0 
  2037.23 3.9153e-15   2046.45 0 
  2046.63 4.1569e-15   2055.89 0 
  2056.08 3.8794e-15   2065.38 0 
  2065.57 3.8794e-15   2074.91 0 
  2075.11 4.3228e-15   2084.49 0 
  2079.89 5.7912e-15   2089.30 0 
  2084.68 6.6339e-15   2094.11 0 
  2094.31 6.1769e-15   2103.78 0 
  2103.97 6.0224e-15   2113.49 0 
  2113.68 6.6645e-15   2123.24 0 
  2123.44 6.0502e-15   2133.04 0 
  2133.24 5.8313e-15   2142.89 0 
  2143.09 6.9465e-15   2152.78 0 
  2152.98 6.9146e-15   2162.72 0 
  2162.92 6.1627e-15   2172.70 0 
  2172.90 6.2340e-15   2182.73 0 
  2182.93 7.4777e-15   2192.81 0 
  2193.01 7.5122e-15   2202.93 0 
  2203.13 7.3075e-15   2213.09 0 
  2213.30 5.9672e-15   2223.31 0 
  2223.52 6.8041e-15   2233.57 0 
  2233.78 8.6053e-15   2243.88 0 
  2244.09 8.2180e-15   2254.24 0 
  2254.45 6.4978e-15   2264.64 0 
  2264.85 6.1202e-15   2275.10 0 
  2275.31 6.5278e-15   2285.60 0 
  2285.81 8.4873e-15   2296.15 0 
  2296.36 7.1597e-15   2306.75 0 
  2306.96 8.5526e-15   2317.39 0 
  2317.61 7.4526e-15   2328.09 0 
  2322.95 6.1717e-15   2333.46 0 
  2333.67 5.6314e-15   2344.23 0 
  2344.45 4.1766e-15   2355.05 0 
  2355.27 7.0799e-15   2365.92 0 
  2366.14 4.5106e-15   2376.84 0 
  2377.06 5.6292e-15   2387.81 0 
  2382.54 3.7115e-15   2393.32 0 
  2393.54 4.4439e-15   2404.36 0 
  2404.58 4.4460e-15   2415.46 0 
  2415.68 5.1308e-15   2426.61 0 
  2426.83 8.3252e-15   2437.81 0 
  2432.43 8.3273e-15   2443.43 0 
  2443.66 9.8791e-15   2454.71 0 
  2454.94 1.0422e-14   2466.04 0 
  2466.27 9.0604e-15   2477.42 0 
  2477.65 7.9317e-15   2488.86 0 
  2483.36 4.9485e-15   2494.60 0 
  2494.82 6.0075e-15   2506.11 0 
  2506.34 9.1603e-15   2517.68 0 
  2512.12 4.3353e-15   2523.48 0 
  2517.91 3.4925e-15   2529.30 0 
  2523.71 3.8837e-15   2535.13 0 
  2535.36 6.3163e-15   2546.83 0 
  2547.07 6.6479e-15   2558.59 0 
  2552.94 1.1879e-14   2564.48 0 
  2564.72 8.8312e-15   2576.32 0 
  2576.56 1.1304e-14   2588.21 0 
  2582.50 9.9853e-15   2594.18 0 
  2594.42 8.9451e-15   2606.15 0 
  2606.39 7.6703e-15   2618.18 0 
  2612.40 6.9171e-15   2624.22 0 
  2624.46 9.4657e-15   2636.33 0 
  2636.58 1.6726e-14   2648.50 0 
  2642.65 2.2672e-14   2654.61 0 
  2654.85 3.1822e-14   2666.86 0 
  2667.10 2.0463e-14   2679.17 0 
  2673.25 2.3125e-14   2685.34 0 
  2685.59 2.7121e-14   2697.74 0 
  2697.99 1.9299e-14   2710.19 0 
  2704.21 2.4080e-14   2716.44 0 
  2716.69 1.7096e-14   2728.98 0 
  2722.95 1.3305e-14   2735.27 0 
  2735.52 1.7268e-14   2747.89 0 
  2748.15 9.7161e-15   2760.58 0 
  2754.48 1.3571e-14   2766.94 0 
  2767.20 1.8149e-14   2779.71 0 
  2773.58 1.9318e-14   2786.12 0 
  2786.38 1.1148e-14   2798.98 0 
  2792.80 4.9926e-15   2805.43 0 
  2805.69 6.0058e-15   2818.38 0 
  2812.16 1.6776e-14   2824.88 0 
  2825.14 2.4885e-14   2837.92 0 
  2838.18 2.3024e-14   2851.02 0 
  2844.72 1.5860e-14   2857.59 0 
  2857.85 8.6607e-15   2870.78 0 
  2864.44 2.2525e-14   2877.40 0 
  2877.66 3.1690e-14   2890.68 0 
  2884.30 2.8843e-14   2897.34 0 
  2897.61 3.5999e-14   2910.72 0 
  2910.99 4.9266e-14   2924.15 0 
  2931.16 4.2946e-14   2944.42 0 
  2951.48 3.9382e-14   2964.83 0 
  2971.94 4.0896e-14   2985.38 0 
  2992.54 4.1790e-14   3006.08 0 
  3013.28 4.1731e-14   3026.91 0 
  3027.19 4.5052e-14   3040.89 0 
  3048.18 4.7654e-14   3061.96 0 
  3069.31 5.2059e-14   3083.19 0 
  3090.58 5.0337e-14   3104.56 0 
  3112.00 5.9195e-14   3126.08 0 
  3133.57 5.4286e-14   3147.75 0 
  3148.04 5.4195e-14   3162.28 0 
  3169.86 6.0584e-14   3184.20 0 
  3191.83 5.2816e-14   3206.27 0 
  3206.56 5.8754e-14   3221.07 0 
  3228.79 4.9825e-14   3243.40 0 
  3251.17 7.1099e-14   3265.88 0 
  3273.71 8.3613e-14   3288.52 0 
  3288.82 8.2140e-14   3303.70 0 
  3311.62 7.6379e-14   3326.60 0 
  3319.25 6.9841e-14   3334.26 0 
  3326.90 7.1163e-14   3341.95 0 
  3334.57 7.8958e-14   3349.66 0 
  3342.26 7.3712e-14   3357.38 0 
  3349.96 7.9740e-14   3365.12 0 
  3357.69 8.2190e-14   3372.87 0 
  3365.43 5.6359e-14   3380.65 0 
  3373.18 5.6248e-14   3388.44 0 
  3380.96 7.4687e-14   3396.25 0 
  3388.76 7.8594e-14   3404.08 0 
  3396.57 6.7691e-14   3411.93 0 
  3404.40 8.9676e-14   3419.79 0 
  3412.24 7.5304e-14   3427.68 0 
  3420.11 7.7618e-14   3435.58 0 
  3427.99 8.1116e-14   3443.50 0 
  3435.90 8.3995e-14   3451.44 0 
  3443.82 6.0172e-14   3459.39 0 
  3451.76 8.0083e-14   3467.37 0 
  3459.71 8.2735e-14   3475.36 0 
  3467.69 8.1252e-14   3483.37 0 
  3475.68 8.1654e-14   3491.40 0 
  3483.69 8.2438e-14   3499.45 0 
  3491.73 8.3999e-14   3507.52 0 
  3499.78 7.1190e-14   3515.60 0 
  3507.84 9.3662e-14   3523.71 0 
  3515.93 7.6509e-14   3531.83 0 
  3524.03 8.5874e-14   3539.97 0 
  3532.16 8.8922e-14   3548.13 0 
  3540.30 9.4440e-14   3556.31 0 
  3548.46 9.9840e-14   3564.51 0 
  3556.64 8.7188e-14   3572.73 0 
  3564.84 9.1538e-14   3580.96 0 
  3573.06 6.6184e-14   3589.22 0 
  3581.30 7.3774e-14   3597.49 0 
  3589.55 5.3217e-14   3605.79 0 
  3597.16 7.6706e-14   3613.43 1 
  3599.90 7.2305e-14   3616.18 1 
  3602.64 8.7006e-14   3618.93 1 
  3605.37 5.9171e-14   3621.68 1 
  3608.11 6.4997e-14   3624.43 1 
  3610.85 7.5990e-14   3627.18 1 
  3613.59 7.1219e-14   3629.93 1 
  3616.32 1.1269e-13   3632.68 1 
  3619.06 8.9957e-14   3635.43 1 
  3621.80 8.3452e-14   3638.18 1 
  3624.54 7.6865e-14   3640.93 1 
  3627.27 8.1826e-14   3643.68 1 
  3630.01 8.7038e-14   3646.43 1 
  3632.75 8.6686e-14   3649.18 1 
  3635.49 9.4525e-14   3651.93 1 
  3638.22 9.5437e-14   3654.68 1 
  3640.96 9.6420e-14   3657.43 1 
  3643.70 8.9435e-14   3660.18 1 
  3646.44 8.4792e-14   3662.93 1 
  3649.17 9.1777e-14   3665.68 1 
  3651.91 9.8916e-14   3668.43 1 
  3654.65 1.0370e-13   3671.18 1 
  3657.39 1.2083e-13   3673.93 1 
  3660.13 1.1678e-13   3676.68 1 
  3662.86 1.0200e-13   3679.43 1 
  3665.60 9.3376e-14   3682.18 1 
  3668.34 1.0724e-13   3684.93 1 
  3671.08 1.1265e-13   3687.68 1 
  3673.81 1.1393e-13   3690.43 1 
  3676.55 9.7524e-14   3693.18 1 
  3679.29 9.4109e-14   3695.93 1 
  3682.03 9.8671e-14   3698.68 1 
  3684.76 9.7187e-14   3701.43 1 
  3687.50 9.9971e-14   3704.18 1 
  3690.24 1.0201e-13   3706.93 1 
  3692.98 1.0395e-13   3709.68 1 
  3695.71 1.0814e-13   3712.43 1 
  3698.45 1.1113e-13   3715.18 1 
  3701.19 1.0350e-13   3717.93 1 
  3703.93 9.4676e-14   3720.68 1 
  3706.66 8.4827e-14   3723.43 1 
  3709.40 9.3718e-14   3726.18 1 
  3712.14 9.8424e-14   3728.93 1 
  3714.88 8.9554e-14   3731.68 1 
  3717.62 9.8824e-14   3734.43 1 
  3720.35 9.9020e-14   3737.18 1 
  3723.09 1.0005e-13   3739.93 1 
  3725.83 9.5795e-14   3742.68 1 
  3728.57 9.7925e-14   3745.43 1 
  3731.30 1.0127e-13   3748.18 1 
  3734.04 8.5217e-14   3750.93 1 
  3736.78 7.2936e-14   3753.68 1 
  3739.52 7.2689e-14   3756.43 1 
  3742.25 8.3919e-14   3759.18 1 
  3744.99 7.3841e-14   3761.93 1 
  3747.73 7.2820e-14   3764.68 1 
  3750.47 8.1975e-14   3767.43 1 
  3753.20 9.1634e-14   3770.18 1 
  3755.94 9.0552e-14   3772.93 1 
  3758.68 8.9693e-14   3775.68 1 
  3761.42 8.6274e-14   3778.43 1 
  3764.15 8.5664e-14   3781.18 1 
  3766.89 9.6275e-14   3783.93 1 
  3769.63 1.1355e-13   3786.68 1 
  3772.37 1.0641e-13   3789.43 1 
  3775.11 9.9527e-14   3792.18 1 
  3777.84 1.1659e-13   3794.93 1 
  3780.58 1.1945e-13   3797.68 1 
  3783.32 1.0878e-13   3800.43 1 
  3786.06 9.6161e-14   3803.18 1 
  3788.79 1.0293e-13   3805.93 1 
  3791.53 9.4967e-14   3808.68 1 
  3794.27 9.5618e-14   3811.43 1 
  3797.01 9.6517e-14   3814.18 1 
  3799.74 9.8383e-14   3816.93 1 
  3802.48 9.7464e-14   3819.68 1 
  3805.22 1.0744e-13   3822.43 1 
  3807.96 9.5139e-14   3825.18 1 
  3810.69 9.0348e-14   3827.93 1 
  3813.43 8.3288e-14   3830.68 1 
  3816.17 7.8637e-14   3833.43 1 
  3818.91 7.6694e-14   3836.18 1 
  3821.64 7.1594e-14   3838.93 1 
  3824.38 6.3984e-14   3841.68 1 
  3827.12 6.2346e-14   3844.43 1 
  3829.86 7.1626e-14   3847.18 1 
  3832.60 5.4353e-14   3849.93 1 
  3835.33 5.5264e-14   3852.68 1 
  3838.07 6.6082e-14   3855.43 1 
  3840.81 8.0612e-14   3858.18 1 
  3843.55 8.9273e-14   3860.93 1 
  3846.28 7.9906e-14   3863.68 1 
  3849.02 9.9635e-14   3866.43 1 
  3851.76 9.1720e-14   3869.18 1 
  3854.50 7.7684e-14   3871.93 1 
  3857.23 9.1958e-14   3874.68 1 
  3859.97 8.2880e-14   3877.43 1 
  3862.71 9.3948e-14   3880.18 1 
  3865.45 9.3116e-14   3882.93 1 
  3868.18 9.5547e-14   3885.68 1 
  3870.92 7.9011e-14   3888.43 1 
  3873.66 8.1952e-14   3891.18 1 
  3876.40 9.0284e-14   3893.93 1 
  3879.13 9.7882e-14   3896.68 1 
  3881.87 9.0593e-14   3899.43 1 
  3884.61 1.0297e-13   3902.18 1 
  3887.35 9.8907e-14   3904.93 1 
  3890.09 9.4772e-14   3907.68 1 
  3892.82 1.0173e-13   3910.43 1 
  3895.56 1.1010e-13   3913.18 1 
  3898.30 1.2160e-13   3915.93 1 
  3901.04 1.1100e-13   3918.68 1 
  3903.77 1.1603e-13   3921.43 1 
  3906.51 1.1751e-13   3924.18 1 
  3909.25 1.1742e-13   3926.93 1 
  3911.99 1.2461e-13   3929.68 1 
  3914.72 1.1343e-13   3932.43 1 
  3917.46 1.1435e-13   3935.18 1 
  3920.20 1.1289e-13   3937.93 1 
  3922.94 9.0126e-14   3940.68 1 
  3925.67 7.9383e-14   3943.43 1 
  3928.41 6.6042e-14   3946.18 1 
  3931.15 5.9878e-14   3948.93 1 
  3933.89 6.4664e-14   3951.68 1 
  3936.62 7.4058e-14   3954.43 1 
  3939.36 8.8459e-14   3957.18 1 
  3942.10 1.0272e-13   3959.93 1 
  3944.84 1.1244e-13   3962.68 1 
  3947.58 1.1605e-13   3965.43 1 
  3950.31 1.1700e-13   3968.18 1 
  3953.05 1.1250e-13   3970.93 1 
  3955.79 1.1095e-13   3973.68 1 
  3958.53 1.0792e-13   3976.43 1 
  3961.26 8.3095e-14   3979.18 1 
  3964.00 6.4720e-14   3981.93 1 
  3966.74 7.2425e-14   3984.68 1 
  3969.48 8.1348e-14   3987.43 1 
  3972.21 9.7979e-14   3990.18 1 
  3974.95 1.1573e-13   3992.93 1 
  3977.69 1.3029e-13   3995.68 1 
  3980.43 1.3963e-13   3998.43 1 
  3983.16 1.4879e-13   4001.18 1 
  3985.90 1.5604e-13   4003.93 1 
  3988.64 1.5769e-13   4006.68 1 
  3991.38 1.6185e-13   4009.43 1 
  3994.11 1.5987e-13   4012.18 1 
  3996.85 1.6032e-13   4014.93 1 
  3999.59 1.6048e-13   4017.68 1 
  4002.33 1.6083e-13   4020.43 1 
  4005.07 1.6846e-13   4023.18 1 
  4007.80 1.6894e-13   4025.93 1 
  4010.54 1.7492e-13   4028.68 1 
  4013.28 1.8321e-13   4031.43 1 
  4016.02 1.8109e-13   4034.18 1 
  4018.75 1.7613e-13   4036.93 1 
  4021.49 1.8110e-13   4039.68 1 
  4024.23 1.7377e-13   4042.43 1 
  4026.97 1.7325e-13   4045.18 1 
  4029.70 1.7056e-13   4047.93 1 
  4032.44 1.6327e-13   4050.68 1 
  4035.18 1.6865e-13   4053.43 1 
  4037.92 1.7487e-13   4056.18 1 
  4040.65 1.7092e-13   4058.93 1 
  4043.39 1.6687e-13   4061.68 1 
  4046.13 1.6545e-13   4064.43 1 
  4048.87 1.6251e-13   4067.18 1 
  4051.60 1.6582e-13   4069.93 1 
  4054.34 1.6294e-13   4072.68 1 
  4057.08 1.5880e-13   4075.43 1 
  4059.82 1.5805e-13   4078.18 1 
  4062.55 1.5705e-13   4080.93 1 
  4065.29 1.5966e-13   4083.68 1 
  4068.03 1.6336e-13   4086.43 1 
  4070.77 1.5874e-13   4089.18 1 
  4073.51 1.6112e-13   4091.93 1 
  4076.24 1.6766e-13   4094.68 1 
  4078.98 1.7861e-13   4097.43 1 
  4081.72 1.9001e-13   4100.18 1 
  4084.46 1.8609e-13   4102.93 1 
  4087.19 1.8257e-13   4105.68 1 
  4089.93 1.7765e-13   4108.43 1 
  4092.67 1.7253e-13   4111.18 1 
  4095.41 1.6823e-13   4113.93 1 
  4098.14 1.6323e-13   4116.68 1 
  4100.88 1.6425e-13   4119.43 1 
  4103.62 1.6879e-13   4122.18 1 
  4106.36 1.7126e-13   4124.93 1 
  4109.09 1.7083e-13   4127.68 1 
  4111.83 1.7292e-13   4130.43 1 
  4114.57 1.7883e-13   4133.18 1 
  4117.31 1.8234e-13   4135.93 1 
  4120.05 1.7518e-13   4138.68 1 
  4122.78 1.7229e-13   4141.43 1 
  4125.52 1.6594e-13   4144.18 1 
  4128.26 1.7221e-13   4146.93 1 
  4131.00 1.7189e-13   4149.68 1 
  4133.73 1.7632e-13   4152.43 1 
  4136.47 1.7220e-13   4155.18 1 
