Earth's thermal emission at the surface
column 1: wavelength [microns]
column 2: downwelling flux [w/m2/um]
column 3: upwelling flux [w/m2/um]
column 4: total of downwelling + upwelling flux

  3.32226E+01    2.31387E+00    2.31400E+00    4.62788E+00
  3.31126E+01    2.33259E+00    2.33264E+00    4.66523E+00
  3.30033E+01    2.35572E+00    2.35575E+00    4.71147E+00
  3.28947E+01    2.37887E+00    2.37897E+00    4.75784E+00
  3.27869E+01    2.40207E+00    2.40230E+00    4.80437E+00
  3.26797E+01    2.42533E+00    2.42573E+00    4.85106E+00
  3.25733E+01    2.44870E+00    2.44929E+00    4.89799E+00
  3.24675E+01    2.47230E+00    2.47298E+00    4.94528E+00
  3.23625E+01    2.49610E+00    2.49680E+00    4.99291E+00
  3.22581E+01    2.51995E+00    2.52074E+00    5.04069E+00
  3.21543E+01    2.54392E+00    2.54478E+00    5.08870E+00
  3.20513E+01    2.56808E+00    2.56896E+00    5.13704E+00
  3.19489E+01    2.59245E+00    2.59327E+00    5.18572E+00
  3.18471E+01    2.61718E+00    2.61772E+00    5.23490E+00
  3.17460E+01    2.64194E+00    2.64228E+00    5.28422E+00
  3.16456E+01    2.66630E+00    2.66689E+00    5.33319E+00
  3.15457E+01    2.69060E+00    2.69160E+00    5.38219E+00
  3.14465E+01    2.71523E+00    2.71644E+00    5.43167E+00
  3.13480E+01    2.74022E+00    2.74144E+00    5.48166E+00
  3.12500E+01    2.76554E+00    2.76658E+00    5.53211E+00
  3.11527E+01    2.79106E+00    2.79184E+00    5.58290E+00
  3.10559E+01    2.81672E+00    2.81722E+00    5.63394E+00
  3.09597E+01    2.84249E+00    2.84272E+00    5.68521E+00
  3.08642E+01    2.86817E+00    2.86831E+00    5.73648E+00
  3.07692E+01    2.89374E+00    2.89398E+00    5.78772E+00
  3.06749E+01    2.91949E+00    2.91977E+00    5.83926E+00
  3.05810E+01    2.94553E+00    2.94569E+00    5.89122E+00
  3.04878E+01    2.97157E+00    2.97172E+00    5.94329E+00
  3.03951E+01    2.99741E+00    2.99782E+00    5.99522E+00
  3.03030E+01    3.02321E+00    3.02400E+00    6.04721E+00
  3.02115E+01    3.04921E+00    3.05032E+00    6.09953E+00
  3.01205E+01    3.07554E+00    3.07677E+00    6.15230E+00
  3.00300E+01    3.10232E+00    3.10337E+00    6.20570E+00
  2.99401E+01    3.12954E+00    3.13014E+00    6.25967E+00
  2.98507E+01    3.15668E+00    3.15698E+00    6.31366E+00
  2.97619E+01    3.18329E+00    3.18385E+00    6.36714E+00
  2.96736E+01    3.20963E+00    3.21078E+00    6.42041E+00
  2.95858E+01    3.23630E+00    3.23785E+00    6.47414E+00
  2.94985E+01    3.26372E+00    3.26511E+00    6.52883E+00
  2.94118E+01    3.29168E+00    3.29253E+00    6.58421E+00
  2.93255E+01    3.31926E+00    3.32000E+00    6.63926E+00
  2.92398E+01    3.34660E+00    3.34753E+00    6.69413E+00
  2.91545E+01    3.37421E+00    3.37519E+00    6.74940E+00
  2.90698E+01    3.40155E+00    3.40290E+00    6.80445E+00
  2.89855E+01    3.42900E+00    3.43072E+00    6.85973E+00
  2.89017E+01    3.45699E+00    3.45870E+00    6.91570E+00
  2.88184E+01    3.48515E+00    3.48680E+00    6.97195E+00
  2.87356E+01    3.51384E+00    3.51506E+00    7.02889E+00
  2.86533E+01    3.54288E+00    3.54345E+00    7.08633E+00
  2.85714E+01    3.57163E+00    3.57189E+00    7.14352E+00
  2.84900E+01    3.60018E+00    3.60040E+00    7.20058E+00
  2.84091E+01    3.62875E+00    3.62900E+00    7.25774E+00
  2.83286E+01    3.65740E+00    3.65769E+00    7.31509E+00
  2.82486E+01    3.68622E+00    3.68650E+00    7.37272E+00
  2.81690E+01    3.71495E+00    3.71538E+00    7.43033E+00
  2.80899E+01    3.74376E+00    3.74436E+00    7.48812E+00
  2.80112E+01    3.77304E+00    3.77349E+00    7.54653E+00
  2.79330E+01    3.80217E+00    3.80269E+00    7.60486E+00
  2.78552E+01    3.83049E+00    3.83186E+00    7.66234E+00
  2.77778E+01    3.85838E+00    3.86106E+00    7.71944E+00
  2.77008E+01    3.88683E+00    3.89042E+00    7.77725E+00
  2.76243E+01    3.91607E+00    3.91997E+00    7.83603E+00
  2.75482E+01    3.94522E+00    3.94959E+00    7.89481E+00
  2.74725E+01    3.97391E+00    3.97923E+00    7.95314E+00
  2.73973E+01    4.00302E+00    4.00901E+00    8.01203E+00
  2.73224E+01    4.03291E+00    4.03898E+00    8.07189E+00
  2.72480E+01    4.06355E+00    4.06913E+00    8.13268E+00
  2.71739E+01    4.09530E+00    4.09951E+00    8.19481E+00
  2.71003E+01    4.12781E+00    4.13007E+00    8.25789E+00
  2.70270E+01    4.15921E+00    4.16057E+00    8.31978E+00
  2.69542E+01    4.18863E+00    4.19088E+00    8.37951E+00
  2.68817E+01    4.21822E+00    4.22129E+00    8.43952E+00
  2.68097E+01    4.24965E+00    4.25203E+00    8.50168E+00
  2.67380E+01    4.28188E+00    4.28295E+00    8.56483E+00
  2.66667E+01    4.31349E+00    4.31387E+00    8.62736E+00
  2.65958E+01    4.34406E+00    4.34473E+00    8.68879E+00
  2.65252E+01    4.37369E+00    4.37554E+00    8.74923E+00
  2.64550E+01    4.40290E+00    4.40636E+00    8.80926E+00
  2.63852E+01    4.43189E+00    4.43724E+00    8.86913E+00
  2.63158E+01    4.46135E+00    4.46825E+00    8.92960E+00
  2.62467E+01    4.49210E+00    4.49951E+00    8.99161E+00
  2.61780E+01    4.52424E+00    4.53103E+00    9.05527E+00
  2.61097E+01    4.55838E+00    4.56289E+00    9.12127E+00
  2.60417E+01    4.59311E+00    4.59491E+00    9.18802E+00
  2.59740E+01    4.62564E+00    4.62670E+00    9.25234E+00
  2.59067E+01    4.65504E+00    4.65815E+00    9.31319E+00
  2.58398E+01    4.68211E+00    4.68936E+00    9.37146E+00
  2.57732E+01    4.70903E+00    4.72062E+00    9.42966E+00
  2.57069E+01    4.73822E+00    4.75225E+00    9.49047E+00
  2.56410E+01    4.76957E+00    4.78425E+00    9.55382E+00
  2.55755E+01    4.80265E+00    4.81654E+00    9.61920E+00
  2.55102E+01    4.83869E+00    4.84930E+00    9.68799E+00
  2.54453E+01    4.87649E+00    4.88236E+00    9.75885E+00
  2.53807E+01    4.91270E+00    4.91528E+00    9.82798E+00
  2.53165E+01    4.94624E+00    4.94791E+00    9.89414E+00
  2.52525E+01    4.97926E+00    4.98053E+00    9.95979E+00
  2.51889E+01    5.01262E+00    5.01327E+00    1.00259E+01
  2.51256E+01    5.04541E+00    5.04600E+00    1.00914E+01
  2.50627E+01    5.07792E+00    5.07875E+00    1.01567E+01
  2.50000E+01    5.10936E+00    5.11143E+00    1.02208E+01
  2.49377E+01    5.13676E+00    5.14364E+00    1.02804E+01
  2.48756E+01    5.15785E+00    5.17507E+00    1.03329E+01
  2.48139E+01    5.17431E+00    5.20594E+00    1.03803E+01
  2.47525E+01    5.19631E+00    5.23762E+00    1.04339E+01
  2.46914E+01    5.22592E+00    5.27037E+00    1.04963E+01
  2.46305E+01    5.24328E+00    5.30156E+00    1.05448E+01
  2.45700E+01    5.24767E+00    5.33108E+00    1.05787E+01
  2.45098E+01    5.26208E+00    5.36199E+00    1.06241E+01
  2.44499E+01    5.28945E+00    5.39469E+00    1.06841E+01
  2.43902E+01    5.31969E+00    5.42783E+00    1.07475E+01
  2.43309E+01    5.35349E+00    5.46150E+00    1.08150E+01
  2.42718E+01    5.39707E+00    5.49654E+00    1.08936E+01
  2.42131E+01    5.45214E+00    5.53315E+00    1.09853E+01
  2.41546E+01    5.51794E+00    5.57124E+00    1.10892E+01
  2.40964E+01    5.58245E+00    5.60922E+00    1.11917E+01
  2.40385E+01    5.63260E+00    5.64535E+00    1.12779E+01
  2.39808E+01    5.67458E+00    5.68044E+00    1.13550E+01
  2.39234E+01    5.71364E+00    5.71520E+00    1.14288E+01
  2.38664E+01    5.74904E+00    5.74953E+00    1.14986E+01
  2.38095E+01    5.78205E+00    5.78360E+00    1.15657E+01
  2.37530E+01    5.81316E+00    5.81747E+00    1.16306E+01
  2.36967E+01    5.84584E+00    5.85159E+00    1.16974E+01
  2.36407E+01    5.87830E+00    5.88575E+00    1.17640E+01
  2.35849E+01    5.90866E+00    5.91967E+00    1.18283E+01
  2.35294E+01    5.94363E+00    5.95426E+00    1.18979E+01
  2.34742E+01    5.96275E+00    5.98680E+00    1.19496E+01
  2.34192E+01    5.93281E+00    6.01295E+00    1.19458E+01
  2.33645E+01    5.90153E+00    6.03897E+00    1.19405E+01
  2.33100E+01    5.93361E+00    6.07338E+00    1.20070E+01
  2.32558E+01    6.02069E+00    6.11507E+00    1.21358E+01
  2.32019E+01    6.09831E+00    6.15555E+00    1.22539E+01
  2.31481E+01    6.06805E+00    6.18193E+00    1.22500E+01
  2.30947E+01    5.99545E+00    6.20281E+00    1.21983E+01
  2.30415E+01    6.05390E+00    6.24091E+00    1.22948E+01
  2.29885E+01    6.19618E+00    6.29002E+00    1.24862E+01
  2.29358E+01    6.26917E+00    6.33010E+00    1.25993E+01
  2.28833E+01    6.22667E+00    6.35509E+00    1.25818E+01
  2.28311E+01    6.13426E+00    6.37358E+00    1.25078E+01
  2.27790E+01    6.13340E+00    6.40410E+00    1.25375E+01
  2.27273E+01    6.26994E+00    6.45267E+00    1.27226E+01
  2.26757E+01    6.43713E+00    6.50531E+00    1.29424E+01
  2.26244E+01    6.53609E+00    6.54905E+00    1.30851E+01
  2.25734E+01    6.57401E+00    6.58482E+00    1.31588E+01
  2.25225E+01    6.55429E+00    6.61306E+00    1.31673E+01
  2.24719E+01    6.51368E+00    6.63860E+00    1.31523E+01
  2.24215E+01    6.56517E+00    6.67627E+00    1.32414E+01
  2.23714E+01    6.57487E+00    6.70847E+00    1.32833E+01
  2.23214E+01    6.39261E+00    6.71547E+00    1.31081E+01
  2.22717E+01    6.27374E+00    6.73084E+00    1.30046E+01
  2.22222E+01    6.37295E+00    6.77491E+00    1.31479E+01
  2.21730E+01    6.57195E+00    6.83217E+00    1.34041E+01
  2.21239E+01    6.78617E+00    6.89147E+00    1.36776E+01
  2.20751E+01    6.88896E+00    6.93614E+00    1.38251E+01
  2.20264E+01    6.88398E+00    6.96665E+00    1.38506E+01
  2.19780E+01    6.92154E+00    7.00281E+00    1.39243E+01
  2.19298E+01    7.00953E+00    7.04564E+00    1.40552E+01
  2.18818E+01    7.07851E+00    7.08599E+00    1.41645E+01
  2.18341E+01    7.11731E+00    7.12240E+00    1.42397E+01
  2.17865E+01    7.12686E+00    7.15498E+00    1.42818E+01
  2.17391E+01    7.12051E+00    7.18550E+00    1.43060E+01
  2.16920E+01    7.07517E+00    7.21091E+00    1.42861E+01
  2.16450E+01    6.89220E+00    7.21822E+00    1.41104E+01
  2.15983E+01    6.62669E+00    7.21468E+00    1.38414E+01
  2.15517E+01    6.39840E+00    7.21608E+00    1.36145E+01
  2.15054E+01    6.35579E+00    7.24196E+00    1.35978E+01
  2.14592E+01    6.66340E+00    7.31400E+00    1.39774E+01
  2.14133E+01    7.10327E+00    7.40348E+00    1.45067E+01
  2.13675E+01    7.33317E+00    7.46532E+00    1.47985E+01
  2.13220E+01    7.33517E+00    7.49718E+00    1.48323E+01
  2.12766E+01    7.35201E+00    7.53100E+00    1.48830E+01
  2.12314E+01    7.49300E+00    7.58120E+00    1.50742E+01
  2.11864E+01    7.61199E+00    7.62852E+00    1.52405E+01
  2.11416E+01    7.63076E+00    7.66267E+00    1.52934E+01
  2.10970E+01    7.47794E+00    7.67425E+00    1.51522E+01
  2.10526E+01    7.21274E+00    7.67105E+00    1.48838E+01
  2.10084E+01    6.97498E+00    7.67148E+00    1.46465E+01
  2.09644E+01    6.60691E+00    7.65474E+00    1.42616E+01
  2.09205E+01    6.20179E+00    7.63310E+00    1.38349E+01
  2.08768E+01    6.13869E+00    7.65652E+00    1.37952E+01
  2.08333E+01    6.54590E+00    7.74192E+00    1.42878E+01
  2.07900E+01    7.04542E+00    7.83951E+00    1.48849E+01
  2.07469E+01    7.33771E+00    7.90984E+00    1.52475E+01
  2.07039E+01    7.68676E+00    7.98770E+00    1.56745E+01
  2.06612E+01    7.94822E+00    8.05402E+00    1.60022E+01
  2.06186E+01    7.89756E+00    8.07918E+00    1.59767E+01
  2.05761E+01    7.50805E+00    8.05960E+00    1.55676E+01
  2.05339E+01    6.76917E+00    7.99386E+00    1.47630E+01
  2.04918E+01    6.23175E+00    7.95470E+00    1.41865E+01
  2.04499E+01    6.25378E+00    7.98944E+00    1.42432E+01
  2.04082E+01    6.69232E+00    8.07925E+00    1.47716E+01
  2.03666E+01    7.42697E+00    8.20826E+00    1.56352E+01
  2.03252E+01    7.89305E+00    8.30178E+00    1.61948E+01
  2.02840E+01    7.63378E+00    8.29936E+00    1.59331E+01
  2.02429E+01    6.92014E+00    8.23679E+00    1.51569E+01
  2.02020E+01    6.08504E+00    8.15808E+00    1.42431E+01
  2.01613E+01    5.55392E+00    8.11959E+00    1.36735E+01
  2.01207E+01    5.47769E+00    8.14133E+00    1.36190E+01
  2.00803E+01    5.69839E+00    8.20241E+00    1.39008E+01
  2.00401E+01    6.27755E+00    8.31103E+00    1.45886E+01
  2.00000E+01    7.20629E+00    8.46606E+00    1.56723E+01
  1.99601E+01    8.11841E+00    8.61895E+00    1.67374E+01
  1.99203E+01    8.57882E+00    8.71196E+00    1.72908E+01
  1.98807E+01    8.57664E+00    8.74357E+00    1.73202E+01
  1.98413E+01    8.35594E+00    8.74612E+00    1.71021E+01
  1.98020E+01    8.25442E+00    8.76452E+00    1.70189E+01
  1.97628E+01    8.50080E+00    8.82925E+00    1.73300E+01
  1.97239E+01    8.68195E+00    8.88527E+00    1.75672E+01
  1.96850E+01    8.19950E+00    8.85271E+00    1.70522E+01
  1.96464E+01    7.55621E+00    8.79863E+00    1.63548E+01
  1.96078E+01    7.60540E+00    8.83702E+00    1.64424E+01
  1.95695E+01    7.77100E+00    8.89088E+00    1.66619E+01
  1.95312E+01    7.16013E+00    8.84077E+00    1.60009E+01
  1.94932E+01    6.54862E+00    8.79062E+00    1.53392E+01
  1.94552E+01    7.11180E+00    8.89795E+00    1.60098E+01
  1.94175E+01    8.19119E+00    9.07450E+00    1.72657E+01
  1.93798E+01    8.84240E+00    9.19367E+00    1.80361E+01
  1.93424E+01    9.15824E+00    9.26787E+00    1.84261E+01
  1.93050E+01    9.25803E+00    9.31311E+00    1.85711E+01
  1.92678E+01    9.22501E+00    9.34053E+00    1.85655E+01
  1.92308E+01    8.77387E+00    9.31188E+00    1.80858E+01
  1.91939E+01    7.64781E+00    9.19273E+00    1.68405E+01
  1.91571E+01    6.66853E+00    9.09324E+00    1.57618E+01
  1.91205E+01    6.70830E+00    9.13037E+00    1.58387E+01
  1.90840E+01    7.66599E+00    9.29058E+00    1.69566E+01
  1.90476E+01    8.79597E+00    9.47388E+00    1.82698E+01
  1.90114E+01    9.26237E+00    9.56820E+00    1.88306E+01
  1.89753E+01    8.62406E+00    9.51442E+00    1.81385E+01
  1.89394E+01    7.38050E+00    9.37956E+00    1.67601E+01
  1.89036E+01    6.26627E+00    9.26212E+00    1.55284E+01
  1.88679E+01    5.37423E+00    9.17454E+00    1.45488E+01
  1.88324E+01    4.90935E+00    9.14420E+00    1.40535E+01
  1.87970E+01    4.97263E+00    9.18459E+00    1.41572E+01
  1.87617E+01    5.43444E+00    9.27827E+00    1.47127E+01
  1.87266E+01    6.16828E+00    9.40828E+00    1.55766E+01
  1.86916E+01    7.30480E+00    9.59202E+00    1.68968E+01
  1.86567E+01    8.35735E+00    9.76447E+00    1.81218E+01
  1.86220E+01    7.74977E+00    9.71507E+00    1.74648E+01
  1.85874E+01    6.11501E+00    9.52845E+00    1.56435E+01
  1.85529E+01    5.52652E+00    9.48160E+00    1.50081E+01
  1.85185E+01    6.52216E+00    9.64621E+00    1.61684E+01
  1.84843E+01    7.41257E+00    9.79680E+00    1.72094E+01
  1.84502E+01    6.66306E+00    9.72866E+00    1.63917E+01
  1.84162E+01    6.12303E+00    9.68839E+00    1.58114E+01
  1.83824E+01    7.43691E+00    9.89505E+00    1.73320E+01
  1.83486E+01    9.29087E+00    1.01735E+01    1.94644E+01
  1.83150E+01    1.00246E+01    1.03027E+01    2.03273E+01
  1.82815E+01    9.76922E+00    1.03002E+01    2.00694E+01
  1.82482E+01    9.03761E+00    1.02345E+01    1.92721E+01
  1.82149E+01    8.57204E+00    1.02041E+01    1.87761E+01
  1.81818E+01    8.42705E+00    1.02163E+01    1.86434E+01
  1.81488E+01    7.33260E+00    1.01027E+01    1.74353E+01
  1.81159E+01    6.11893E+00    9.97330E+00    1.60922E+01
  1.80832E+01    6.23814E+00    1.00206E+01    1.62588E+01
  1.80505E+01    7.49701E+00    1.02189E+01    1.77159E+01
  1.80180E+01    7.74586E+00    1.02834E+01    1.80292E+01
  1.79856E+01    6.64290E+00    1.01690E+01    1.68119E+01
  1.79533E+01    6.04652E+00    1.01216E+01    1.61682E+01
  1.79212E+01    5.39815E+00    1.00677E+01    1.54658E+01
  1.78891E+01    4.69721E+00    1.00068E+01    1.47040E+01
  1.78571E+01    4.61673E+00    1.00278E+01    1.46446E+01
  1.78253E+01    4.82165E+00    1.00865E+01    1.49081E+01
  1.77936E+01    6.14359E+00    1.02920E+01    1.64356E+01
  1.77620E+01    7.91176E+00    1.05562E+01    1.84679E+01
  1.77305E+01    7.74056E+00    1.05651E+01    1.83056E+01
  1.76991E+01    6.95073E+00    1.04925E+01    1.74432E+01
  1.76678E+01    8.07547E+00    1.06713E+01    1.87467E+01
  1.76367E+01    9.87401E+00    1.09384E+01    2.08124E+01
  1.76056E+01    1.05926E+01    1.10636E+01    2.16562E+01
  1.75747E+01    1.05042E+01    1.10829E+01    2.15871E+01
  1.75439E+01    9.95810E+00    1.10423E+01    2.10004E+01
  1.75131E+01    8.89310E+00    1.09339E+01    1.98270E+01
  1.74825E+01    7.46118E+00    1.07779E+01    1.82390E+01
  1.74520E+01    6.50727E+00    1.06844E+01    1.71917E+01
  1.74216E+01    7.03324E+00    1.07841E+01    1.78173E+01
  1.73913E+01    8.90642E+00    1.10592E+01    1.99656E+01
  1.73611E+01    1.02105E+01    1.12599E+01    2.14704E+01
  1.73310E+01    9.49968E+00    1.11984E+01    2.06981E+01
  1.73010E+01    8.18127E+00    1.10579E+01    1.92392E+01
  1.72712E+01    8.36469E+00    1.11124E+01    1.94770E+01
  1.72414E+01    9.90944E+00    1.13433E+01    2.12527E+01
  1.72117E+01    1.05017E+01    1.14508E+01    2.19525E+01
  1.71821E+01    9.29923E+00    1.13259E+01    2.06251E+01
  1.71527E+01    8.41862E+00    1.12426E+01    1.96612E+01
  1.71233E+01    9.14133E+00    1.13664E+01    2.05077E+01
  1.70940E+01    9.62736E+00    1.14597E+01    2.10871E+01
  1.70648E+01    8.82927E+00    1.13875E+01    2.02168E+01
  1.70358E+01    8.09062E+00    1.13229E+01    1.94135E+01
  1.70068E+01    8.48160E+00    1.14036E+01    1.98852E+01
  1.69779E+01    9.66881E+00    1.15864E+01    2.12553E+01
  1.69492E+01    1.05988E+01    1.17360E+01    2.23348E+01
  1.69205E+01    1.12881E+01    1.18544E+01    2.31425E+01
  1.68919E+01    1.15364E+01    1.19162E+01    2.34527E+01
  1.68634E+01    1.11091E+01    1.18916E+01    2.30006E+01
  1.68350E+01    1.09770E+01    1.19046E+01    2.28816E+01
  1.68067E+01    1.11252E+01    1.19534E+01    2.30786E+01
  1.67785E+01    1.11733E+01    1.19893E+01    2.31626E+01
  1.67504E+01    1.12712E+01    1.20316E+01    2.33028E+01
  1.67224E+01    1.09954E+01    1.20263E+01    2.30217E+01
  1.66945E+01    1.08239E+01    1.20342E+01    2.28580E+01
  1.66667E+01    1.11388E+01    1.21038E+01    2.32426E+01
  1.66389E+01    1.09906E+01    1.21147E+01    2.31054E+01
  1.66113E+01    1.06832E+01    1.21054E+01    2.27885E+01
  1.65837E+01    1.08191E+01    1.21521E+01    2.29712E+01
  1.65563E+01    1.10026E+01    1.22048E+01    2.32075E+01
  1.65289E+01    1.11194E+01    1.22490E+01    2.33684E+01
  1.65016E+01    1.11148E+01    1.22779E+01    2.33927E+01
  1.64745E+01    1.10995E+01    1.23053E+01    2.34048E+01
  1.64474E+01    1.12856E+01    1.23581E+01    2.36437E+01
  1.64204E+01    1.13423E+01    1.23945E+01    2.37368E+01
  1.63934E+01    1.13451E+01    1.24241E+01    2.37692E+01
  1.63666E+01    1.14683E+01    1.24687E+01    2.39370E+01
  1.63399E+01    1.16634E+01    1.25222E+01    2.41855E+01
  1.63132E+01    1.19646E+01    1.25888E+01    2.45534E+01
  1.62866E+01    1.21308E+01    1.26385E+01    2.47693E+01
  1.62602E+01    1.23124E+01    1.26899E+01    2.50023E+01
  1.62338E+01    1.26186E+01    1.27568E+01    2.53754E+01
  1.62075E+01    1.27786E+01    1.28053E+01    2.55839E+01
  1.61812E+01    1.27672E+01    1.28325E+01    2.55998E+01
  1.61551E+01    1.25394E+01    1.28329E+01    2.53722E+01
  1.61290E+01    1.22601E+01    1.28269E+01    2.50870E+01
  1.61031E+01    1.21213E+01    1.28382E+01    2.49595E+01
  1.60772E+01    1.20491E+01    1.28578E+01    2.49068E+01
  1.60514E+01    1.22486E+01    1.29108E+01    2.51594E+01
  1.60256E+01    1.26562E+01    1.29893E+01    2.56454E+01
  1.60000E+01    1.29112E+01    1.30489E+01    2.59601E+01
  1.59744E+01    1.30073E+01    1.30888E+01    2.60961E+01
  1.59490E+01    1.30499E+01    1.31221E+01    2.61720E+01
  1.59236E+01    1.30876E+01    1.31547E+01    2.62423E+01
  1.58982E+01    1.31320E+01    1.31881E+01    2.63200E+01
  1.58730E+01    1.31743E+01    1.32211E+01    2.63954E+01
  1.58479E+01    1.32143E+01    1.32538E+01    2.64681E+01
  1.58228E+01    1.32542E+01    1.32864E+01    2.65406E+01
  1.57978E+01    1.32928E+01    1.33188E+01    2.66116E+01
  1.57729E+01    1.33275E+01    1.33506E+01    2.66781E+01
  1.57480E+01    1.33593E+01    1.33820E+01    2.67413E+01
